eda_mean,eda_std,eda_slope,eda_peaks,temp_mean,temp_std,temp_slope,acc_mean,acc_std,acc_max,bvp_std,start_time_sec,end_time_sec,center_time_sec,label,subject_id
0.41160635000000007,0.05037639216995232,0.0006434204597541505,6,33.291666666666664,0.02757817172249747,0.0006433780123621092,62.965820863866114,2.610313443411556,75.69015788066504,66.41484046757422,0.0,30.0,15.0,0,S10
0.4123312083333333,0.046516780649011644,-4.80119209667353e-05,8,33.31133333333333,0.019362047641942676,0.0003162719633309955,62.97509498219789,2.5421274521852837,83.03011501858829,69.81242984235011,10.0,40.0,25.0,0,S10
0.4093358083333333,0.041715590693267954,-0.0010152287901937637,7,33.3225,0.01367784096022917,0.00012105007292162498,63.0000114471669,2.504707100009885,83.03011501858829,66.17315552769911,20.0,50.0,35.0,0,S10
0.3831660083333333,0.012747890547391122,-0.00024253261684839135,8,33.32483333333333,0.011971029845236531,2.8474199597264766e-06,63.017007316008524,2.5196141769710616,83.03011501858829,67.20131639082469,30.0,60.0,45.0,0,S10
0.37865695,0.0033763179817912054,-3.4632891172993535e-06,12,33.32583333333333,0.010294281044454097,-2.0626432391184725e-05,62.97325268271176,0.46845123474781614,65.22269543648132,42.310959902711836,40.0,70.0,55.0,0,S10
0.3780386583333334,0.00293539450924923,-5.446048336690787e-06,26,33.32725,0.010243900624273595,0.00011025071185498527,62.96972068770531,0.435059205600957,65.22269543648132,29.89224919037914,50.0,80.0,65.0,0,S10
0.37815588333333333,0.0027588089645815524,-3.212264046114302e-05,27,33.33141666666667,0.008784060690946711,0.00012379331898044576,63.00300233912438,0.3488499050984695,63.82789358893179,21.39065153999652,60.0,90.0,75.0,0,S10
0.37874214166666664,0.0048418119977542695,3.077391138273452e-05,15,33.33291666666666,0.007788435158762051,-1.5591360511130606e-05,62.98821921625507,1.6535537381639671,73.79024325749306,62.47766374201041,70.0,100.0,85.0,0,S10
0.37915794999999997,0.004707323526254946,-2.4263212723106426e-06,20,33.33241666666666,0.007637171524125021,-5.274671852215722e-05,62.92812821066536,1.643374547102397,73.79024325749306,62.591921627981144,80.0,110.0,95.0,0,S10
0.3797869916666668,0.0045448832245648,-3.9922595319120214e-05,25,33.32908333333333,0.0083661852451135,-4.552399472209609e-05,62.87002824741013,1.628255150927354,73.79024325749306,62.68454516859044,90.0,120.0,105.0,0,S10
0.37922205000000003,0.0016256322300877235,1.740720188902043e-05,30,33.324416666666664,0.011817771457521378,-0.000187200500034679,62.86138530583401,0.1719615213089733,63.63961030678928,20.92487658001568,100.0,130.0,115.0,0,S10
0.37909408333333333,0.0023691071862037426,-1.689455517744307e-05,26,33.31933333333333,0.012364824660659602,-0.00010889645114236379,62.83488942005909,1.7107517554997886,75.82875444051551,43.55301165238812,110.0,140.0,125.0,0,S10
0.37775084166666667,0.0029624651193328614,-5.66061497326196e-05,17,33.31933333333333,0.012364824660659602,0.00011778595735806962,62.786430638688984,1.7119562844191996,75.82875444051551,43.62342023373326,120.0,150.0,135.0,0,S10
0.37636495833333333,0.002644639415861934,-2.834652753663283e-05,21,33.320833333333326,0.011223734771553839,4.9517327592081493e-05,62.722864653021446,1.7031098179753748,75.82875444051551,40.25824148121379,130.0,160.0,145.0,0,S10
0.3761624166666667,0.0019168478446976978,2.69640669490926e-05,25,33.324999999999996,0.0102469507659586,1.9723591916094414e-05,62.71199920692836,0.11614130852912281,63.48228099241551,12.991934696561643,140.0,170.0,155.0,0,S10
0.3770899083333334,0.0020487608734542926,2.884541634835683e-05,30,33.32433333333333,0.011455226851625729,4.722550177022186e-06,62.74339999161683,0.2870960791108692,65.40642170307133,14.607511575812632,150.0,180.0,165.0,0,S10
0.37952045000000006,0.006382689524343691,5.758158899923597e-05,15,33.32716666666666,0.010422998075836057,-1.1736926175542254e-05,62.81909571422482,0.4315247930991992,65.40642170307133,23.502277371329118,160.0,190.0,175.0,0,S10
0.382483925,0.007282162942380172,7.85818216542804e-05,12,33.32991666666666,0.009957897480001959,0.00012914091256342335,62.77973016392891,0.5216773053726529,65.40642170307133,25.7049568047358,170.0,200.0,185.0,0,S10
0.38683304166666665,0.007373279854081039,7.33015105215645e-05,16,33.34266666666667,0.01721110752456661,0.00041238974928807395,62.85885662511164,0.5139492033835494,65.19202405202648,34.7185576261297,180.0,210.0,195.0,0,S10
0.39103292500000003,0.005577662490031857,0.00010399462809917253,21,33.356833333333334,0.020735771560811474,0.00045426765747625536,62.88999985092457,0.43541407576715935,64.59876159803684,30.06960113532436,190.0,220.0,205.0,0,S10
0.394081575,0.00396046096362216,5.5707010903534254e-05,18,33.37508333333333,0.019790394695967963,0.00039311757760950657,63.055658865686496,0.34237165114563606,64.33506042586733,27.868874977168623,200.0,230.0,215.0,0,S10
0.3946892833333333,0.0032479918723813867,-2.7393881519551653e-05,22,33.38566666666666,0.017162620882473865,0.0002898812417528389,63.01329879335808,0.3523849868791526,63.89835678638379,14.775244652984789,210.0,240.0,225.0,0,S10
0.39160869166666673,0.004502247118191521,-0.00011162668588096446,22,33.39533333333332,0.01146976702272246,9.111743871099998e-05,62.965080612280374,0.3632586163697328,63.89835678638379,19.13337434011285,220.0,250.0,235.0,0,S10
0.3881656833333333,0.003969726541764418,-9.329579137440078e-05,13,33.393499999999996,0.012822506255278332,-0.0001221612611987273,62.90911630860608,0.36708573513191006,63.89835678638379,19.37944958780793,230.0,260.0,245.0,0,S10
0.3861509416666667,0.003382623361376578,6.169098548511238e-06,27,33.390833333333326,0.013265452205719189,-0.00019549968747831185,62.95232527174393,1.2733458081825642,69.85699678629192,50.03399449346636,240.0,270.0,255.0,0,S10
0.38553269166666665,0.0032833804729166835,-5.078772831446641e-06,22,33.39316666666666,0.015491036834964162,0.00022439058267933603,63.0348941354916,1.275586660076929,69.85699678629192,47.60856237735906,250.0,280.0,265.0,0,S10
0.3847224083333333,0.0036030014675171285,-4.34747100493069e-05,22,33.406166666666664,0.01971392626771466,0.00044537815126060286,62.97805035873215,1.287182846243399,69.85699678629192,47.174636324335694,260.0,290.0,275.0,0,S10
0.3826330666666666,0.002402092881680936,-5.0262344607265325e-05,19,33.419666666666664,0.01460213074254039,0.00021820959788867563,62.93763302109999,0.35965219496584677,63.72597586541927,6.216727291929591,270.0,300.0,285.0,0,S10
0.3800746583333333,0.003284420901508189,-7.25746753246744e-05,23,33.428000000000004,0.01077032961427069,8.945065629556785e-05,62.86323866920187,1.0707741836155078,69.15200647848188,57.30091188622617,280.0,310.0,295.0,0,S10
0.37799600833333336,0.004984421563725376,-4.8479425654559235e-05,26,33.42766666666667,0.011308796969126685,-2.875199666642875e-05,63.103847301135374,1.8451167429162134,73.12318373812782,67.2733620981816,290.0,320.0,305.0,0,S10
0.37641840833333334,0.008353456626347197,-1.926671991112432e-06,25,33.434999999999995,0.01678292783356674,0.00021209806236544948,63.11667950535393,2.6554538002197603,74.11477585475112,74.64706969350095,300.0,330.0,315.0,0,S10
0.37614125,0.008809655349151482,6.5488367247735136e-06,21,33.450583333333334,0.028381209550609385,0.0007066810195153014,63.11584461196398,2.9774416733863203,74.11477585475112,67.361544674985,310.0,340.0,325.0,0,S10
0.3746382833333334,0.008028535141588548,-3.036948399194406e-05,19,33.4895,0.041909624988379156,0.0011440377804012637,62.943125660951154,2.560195050455969,74.11477585475112,58.59245967503697,320.0,350.0,335.0,0,S10
0.3742544583333334,0.0038821950811704334,-1.2904635738594018e-05,25,33.52666666666667,0.0376238694920587,0.0009797902632125318,62.974849025748455,1.7058888741228304,71.8679344353238,48.84605311133701,330.0,360.0,345.0,0,S10
0.374073175,0.002182780370164397,4.261178901312772e-05,25,33.55475,0.014431591503827355,0.0002900548649211243,62.98817517627836,0.2545347961869792,63.72597586541927,13.904385578138847,340.0,370.0,355.0,0,S10
0.3757360083333333,0.0017454897282989728,2.710345510104901e-05,24,33.55933333333334,0.01236482466066231,-4.555871935564039e-05,62.97481416221,0.2697799753767274,63.72597586541927,8.40835667489327,350.0,380.0,365.0,0,S10
0.37717509166666663,0.0027300873184931645,4.790768456142642e-05,25,33.559333333333335,0.013399834161495578,-3.8891589693895125e-05,62.89388463452326,1.5332782676166368,68.70953354520753,26.062817601448792,360.0,390.0,375.0,0,S10
0.38392279999999995,0.010467853159873168,0.00023955338565178185,14,33.55466666666667,0.01431394036905653,-7.389402041806766e-05,63.36793218938519,2.001292092993885,73.98648525237566,33.39909853698649,370.0,400.0,385.0,0,S10
0.392130925,0.01145425822941153,0.0002842824814223196,20,33.56483333333333,0.022582564562561358,0.00032425862907147206,63.7799353370049,1.9903555145097875,73.98648525237566,33.12158270412797,380.0,410.0,395.0,0,S10
0.4001257833333334,0.00680411750851808,0.00010720045142023708,33,33.59241666666666,0.04195227116087499,0.001138863809986849,64.24971739132873,1.0949041667598667,73.98648525237566,21.78284675240793,390.0,420.0,405.0,0,S10
0.40190592500000005,0.004401196072589248,-1.7286148343635183e-05,35,33.63374999999999,0.04084651147894974,0.0011333078686018912,64.24018205877891,2.7414732757414884,90.08329478876757,34.02898545021337,400.0,430.0,415.0,0,S10
0.3972369,0.008431672664621973,-0.0001742781026460168,24,33.67275,0.02923931428744495,0.0007211959163830708,64.26095833969754,3.630321371952726,90.08329478876757,65.63658917346626,410.0,440.0,425.0,0,S10
0.3937192333333333,0.007491374311759422,-9.727820681991791e-05,18,33.676249999999996,0.025724906867340604,-0.00022963400236127222,63.93787506633552,3.6705765217018036,90.08329478876757,66.13012603692603,420.0,450.0,435.0,0,S10
0.3916513000000001,0.00435566774559309,9.665152441141786e-05,25,33.65991666666666,0.035718712027295395,-0.0009434335717758163,63.577066237591,2.4559414937996222,83.94045508573325,57.11841201472021,430.0,460.0,445.0,0,S10
0.39462535000000004,0.0026780536453738174,5.100715327453218e-05,26,33.62608333333334,0.02500985916704591,-0.0006477880408361066,63.2788022789055,0.44890475661962337,63.75735251718032,13.298252409986894,440.0,470.0,455.0,0,S10
0.39634145000000004,0.0023469560848398247,3.508338773525985e-05,30,33.603833333333334,0.020132201954965637,-0.0004792693937077995,63.318151669020075,0.43205233359904005,63.75735251718032,11.845614413207484,450.0,480.0,465.0,0,S10
0.3975885833333333,0.0021593691115050794,2.5247669977080454e-05,26,33.585,0.017175564037318198,-0.00037099798597139066,63.299894882542766,0.3628239137226248,63.75735251718032,11.725817028806802,460.0,490.0,475.0,0,S10
0.3983348166666667,0.002495798796589094,1.3523307174110093e-05,28,33.571000000000005,0.01670329308849154,-0.00032932842558513293,63.67289717144893,2.954459757850438,85.60957890329796,40.50794925887661,470.0,500.0,485.0,0,S10
0.3975673916666667,0.0030965773371467043,-4.003742968261722e-05,22,33.568333333333335,0.016649991658323923,0.0001732064726718195,63.880730431208896,3.722984408851974,85.60957890329796,51.358690631024984,480.0,510.0,495.0,0,S10
0.39751410000000004,0.003640575770396767,-2.6089797902637518e-06,21,33.5835,0.026603571188846653,0.0006720605597611913,64.24789413464234,4.926097095787193,88.7862601982987,79.75141549057295,490.0,520.0,505.0,0,S10
0.3986546833333333,0.004196125343661967,7.78657476213632e-05,20,33.61083333333333,0.02908560163074182,0.0007844294742690611,63.823318526978355,4.294455208428084,88.7862601982987,79.02248281233885,500.0,530.0,515.0,0,S10
0.4014261666666667,0.0037837358464295036,5.68030349329826e-05,19,33.63566666666666,0.01918042984108685,0.00048267240780597276,63.659805325192686,3.989049923465775,88.7862601982987,74.39768716606534,510.0,540.0,525.0,0,S10
0.404187075,0.0030604868135709487,4.669769775679005e-05,25,33.64733333333333,0.012364824660659192,0.00010222932148054944,63.38242338653144,2.255010491580745,73.34166619323561,42.80353111399092,520.0,550.0,535.0,0,S10
0.4057540416666667,0.0026505250278508734,3.501144871171367e-05,25,33.64183333333333,0.01570474096853673,-0.0003524550315994524,63.38767682975072,1.6665611681199943,73.34166619323561,20.683520974169,530.0,560.0,545.0,0,S10
0.4041977583333333,0.007836746348661792,-9.931136537259563e-05,31,33.623000000000005,0.024310491562285097,-0.0005960136120564323,63.86923617163646,4.274420528179804,83.74365647617735,46.523023402994305,540.0,570.0,555.0,0,S10
0.4023855666666666,0.008705125309009378,-8.334797555385815e-05,25,33.61466666666667,0.019102065042525724,3.5002430724357766e-05,63.72172295811071,4.6494110648325035,83.74365647617735,61.457523672858805,550.0,580.0,565.0,0,S10
0.4032916583333333,0.009717989525013081,0.00010934560386137868,22,33.62608333333333,0.0289912582609905,0.0007482811306340385,63.76066567406224,4.66217182585497,83.74365647617735,64.54464065022492,560.0,590.0,575.0,0,S10
0.40930378333333334,0.008466542456618422,0.00017451923744704544,22,33.64591666666665,0.02047339058930222,0.00041096603930822185,63.20676746592868,2.33192620838517,70.67531393633848,50.75224754731722,570.0,600.0,585.0,0,S10
0.4133439333333334,0.004774683982096503,4.984951732759325e-05,26,33.656833333333324,0.010326610716438788,-2.5348982568174656e-05,63.24171479124782,1.5227749655807146,70.15696686716153,35.50944962807631,580.0,610.0,595.0,0,S10
0.41646723333333335,0.0034349486913522066,2.345639974998148e-05,19,33.65633333333332,0.009122621455601472,1.9445794846729237e-06,63.154058745859736,1.5021752864309346,70.15696686716153,44.23532997872163,590.0,620.0,605.0,0,S10
0.41818354166666666,0.004241240313665785,0.00010217343218279149,19,33.66516666666666,0.017223207857101134,0.0003227307451904529,63.09403465604734,0.533345561678417,64.69930447848725,39.63389690647458,600.0,630.0,615.0,0,S10
0.4217758583333333,0.004384716956459541,5.418803041878007e-05,20,33.67508333333333,0.017794935296939488,0.00037631085492039336,63.1240630735535,1.5527377175085653,70.66116330771806,53.38855647976498,610.0,640.0,625.0,0,S10
0.4203155333333334,0.0060645078213780465,-9.231373706507199e-05,20,33.685249999999996,0.016276900810658922,0.00015094798249875435,63.282421684025984,3.9096170918797575,77.80745465570763,71.79670317330425,620.0,650.0,635.0,0,S10
0.41902558333333334,0.0060353491414931555,-7.177878324883722e-05,16,33.706583333333334,0.032646996628923376,0.0007761302868256003,63.331918741050245,4.290656738038491,78.74642849044012,80.81341755855308,630.0,660.0,645.0,0,S10
0.41769312500000005,0.004187337554187426,6.825377109521596e-05,23,33.73191666666666,0.03592343323731264,0.0009361413987083804,63.265649907080764,4.1047787396348,78.74642849044012,71.19590672846923,640.0,670.0,655.0,0,S10
0.42558139999999994,0.011622973107456911,0.00021439495798319472,10,33.76316666666666,0.02024777079636867,0.0004707965830961562,63.47036266796166,2.2575199070557948,78.74642849044012,48.08264488935229,650.0,680.0,665.0,0,S10
0.428011875,0.011768444751086479,2.4243492603651922e-05,17,33.79475000000001,0.03759349456133702,0.0009862143204388857,63.83194774054383,4.360708770580193,94.76813810558906,52.435503683625996,660.0,690.0,675.0,0,S10
0.42833165,0.01152877930561167,-0.00022817229668727093,17,33.83716666666666,0.04866866434255945,0.001358774914924493,63.77256281046593,4.306224090605687,94.76813810558906,53.128383962224,670.0,700.0,685.0,0,S10
0.42276721666666667,0.006067685271423982,-6.79422737690124e-05,24,33.87883333333333,0.03437982289398982,0.0008344329467324045,63.31149187722738,4.1988089120333845,94.76813810558906,46.60190659517651,680.0,710.0,695.0,0,S10
0.42142414166666664,0.00264672870192568,1.3875998333214517e-06,32,33.89908333333333,0.01875259241337512,0.00019088131120215945,62.91199686057836,1.2802282405539163,71.45628033979938,44.588839390841095,690.0,720.0,705.0,0,S10
0.4223622083333333,0.009576702342922147,2.408299534689884e-05,22,33.91033333333333,0.016326529195011475,0.0002093200916731186,62.895472335650055,2.812393940307705,78.31347265956222,73.01635623264869,700.0,730.0,715.0,0,S10
0.4222129416666667,0.009557820218103981,-3.4133238419338585e-06,19,33.91916666666667,0.016910713238129736,0.0003527328286685728,62.94788388892992,2.8264666822372444,78.31347265956222,73.4968780931374,710.0,740.0,725.0,0,S10
0.42322554166666665,0.009570009097780274,5.742957844293154e-06,21,33.92716666666667,0.012462164962622028,5.493437044242177e-05,62.97170435287532,2.9548464529869225,78.31347265956222,69.31835811112539,720.0,750.0,735.0,0,S10
0.42355597500000003,0.002917777640209808,4.49520418084592e-05,28,33.93383333333334,0.017184456801296003,0.00014938537398431306,63.03889531203683,1.5671666061379954,72.5120679611332,46.59397541520851,730.0,760.0,745.0,0,S10
0.42496303333333335,0.002289247143106706,9.282505729563059e-06,31,33.94516666666667,0.023522447907384253,0.0004677408153344071,63.210046447164174,1.7219257090091418,72.5120679611332,49.907516998875586,740.0,770.0,755.0,0,S10
0.4239716916666667,0.0034945135779672126,-3.1843714841309274e-05,32,33.962833333333336,0.022773644611456277,0.0004248211681366872,63.40008028757549,2.2685868278841994,77.60154637634484,69.27043862824893,750.0,780.0,765.0,0,S10
0.4229164166666667,0.00394328813847727,-4.02771373012019e-05,29,33.97933333333334,0.016519348924485044,0.00025557330370159717,63.26532904743714,2.7428343952026992,77.60154637634484,65.67076678633771,760.0,790.0,775.0,0,S10
0.4228312,0.005250461499716001,3.8591332731438854e-05,26,33.98433333333334,0.013211947455071395,4.986457392872424e-05,63.23217769669568,3.5260984671685183,78.65748533992172,87.2588739641594,770.0,800.0,785.0,0,S10
0.42408899166666664,0.0051589485257751136,4.2576015695533686e-05,21,33.993249999999996,0.014897566915440004,0.000160809778456819,63.00462237678512,2.892673358453736,78.65748533992172,70.73627925533607,780.0,810.0,795.0,0,S10
0.4264021333333333,0.004891877005017832,4.851736926175402e-05,20,34.000083333333336,0.020103724088392946,0.00034325300368077955,63.14454454508944,2.447752886468382,78.65748533992172,67.51208468180592,790.0,820.0,805.0,0,S10
0.4277452583333333,0.0034455224313492093,4.733062365442111e-05,26,34.00466666666667,0.01647894279241059,-0.00017001180637553486,63.05269394528092,0.7796064665809368,68.81860213634101,30.382015864538275,800.0,830.0,815.0,0,S10
0.4295468583333334,0.0025240928281128235,2.2636658795749078e-05,31,33.99608333333334,0.020260628212262842,-0.000399159663865539,63.08385370898777,0.8077135773474324,69.14477565225012,13.585291616507742,810.0,840.0,825.0,0,S10
0.42956819166666665,0.003935731290149762,2.940311827211452e-06,31,33.987416666666675,0.01319695882475323,-7.74706576844322e-05,63.08111415467766,1.5159277702203353,69.89992846920518,42.323037775608164,820.0,850.0,835.0,0,S10
0.41791702500000005,0.017761218778780594,-0.00041557092506424144,21,33.989333333333335,0.014126413400278212,0.0002605736509479712,63.414199106382874,1.5484460046646704,69.89992846920518,49.93644443440082,830.0,860.0,845.0,0,S10
0.4036222,0.018859308690317007,-0.00046722489756233096,11,33.99300000000001,0.011000000000000093,3.305785123974466e-05,63.70912983731213,1.4041991926021191,69.89992846920518,50.19274524575794,840.0,870.0,855.0,0,S10
0.3893487916666667,0.005899109222156387,-0.00011079139176331431,17,33.99183333333334,0.012246314638381203,-0.00022855753871789524,64.06301800522789,0.23393174612591688,65.1536645170477,32.13913340969835,850.0,880.0,865.0,0,S10
0.3862362083333333,0.0024061251314642603,-3.701076810889469e-05,38,33.98283333333334,0.011487916356861555,-0.00022772414751025152,64.06806070488986,0.01625365229475498,64.10148204214939,19.11891016605026,860.0,890.0,875.0,0,S10
0.38523427499999996,0.0019609803159070754,-1.3596211542467735e-05,35,33.97466666666667,0.012445436468396727,-0.0002212653656503849,64.0571079667425,0.10917388466611175,64.20280367709809,18.629137681890523,870.0,900.0,885.0,0,S10
0.39463618333333333,0.015565266593703293,0.0003359078130425722,8,33.97416666666667,0.012488883946223158,7.021320925051846e-05,64.1666725848091,0.45254398744580454,67.00746227100382,31.729071495917676,880.0,910.0,895.0,0,S10
0.40412333333333333,0.01537767295374116,0.00032376231682755644,21,33.982083333333335,0.01622219843986079,0.00034936453920412727,64.25590212973995,0.48721127513170404,67.00746227100382,31.281844778894246,890.0,920.0,905.0,0,S10
0.4133439333333334,0.0072246266832426895,-1.0690145148967807e-05,25,34.00183333333333,0.022582564562560244,0.0005474685742065063,64.36067682579095,0.48642765076554517,67.00746227100382,31.524664105620893,900.0,930.0,915.0,0,S10
0.41265095833333343,0.0019081263820645061,-1.5509358288770428e-05,33,34.017250000000004,0.02121173024531385,0.00039082575178816387,64.3204299821421,0.3520704177034386,64.56779382943171,16.04212901476574,910.0,940.0,925.0,0,S10
0.4123631083333334,0.006087737672014452,2.523775956662288e-06,31,34.02708333333333,0.01859192626443507,3.906521286191939e-05,64.27807236181887,1.4791033710024268,77.08436936240706,16.522258511668095,920.0,950.0,935.0,0,S10
0.42015545833333334,0.01932848695531022,0.00028392276199736005,7,34.029999999999994,0.017320508075687788,5.889297867894438e-05,64.23616842940564,2.05093446401809,77.08436936240706,35.0854324514542,930.0,960.0,945.0,0,S10
0.4203793583333333,0.0194683872114067,8.43135981665275e-06,8,34.034083333333335,0.015082872921148596,0.00011768178345713959,64.2028864910273,2.0386350548668766,77.08436936240706,34.3818818081074,940.0,970.0,955.0,0,S10
0.4170428583333333,0.020517685966134937,-0.00037719164178068076,7,34.036,0.013564659966249094,-4.278074866324234e-05,64.18101406436513,1.4395949672622474,71.76350047203663,33.578745006658934,950.0,980.0,965.0,0,S10
0.40448560000000006,0.007072018553661559,-0.00018399697201194613,12,34.03466666666666,0.013097921802924316,-0.0001639002708522356,64.15927178829126,0.17178551406249742,64.52131430775415,9.347216339935413,960.0,990.0,975.0,0,S10
0.39871865833333336,0.003505454653098596,-8.68204007222741e-05,24,34.02658333333333,0.016046590153535364,-0.00024657962358498353,64.1490283503352,0.18840127713510213,64.52131430775415,9.042834575492478,970.0,1000.0,985.0,0,S10
0.39537153333333325,0.003016117388114878,-7.239190916035794e-05,20,34.018249999999995,0.017159181215897157,-0.00030852837002576743,64.15389413116654,0.1669365360775571,64.22616289332565,8.563045140797362,980.0,1010.0,995.0,0,S10
0.3924720583333333,0.0029633090830349087,-7.444704840614114e-05,26,34.01208333333333,0.015432424379281235,-0.00010372248072799449,64.14040430444705,0.15875241333116466,64.20280367709809,7.8952548178566655,990.0,1020.0,1005.0,0,S10
0.38964724166666664,0.0028522210205260295,-6.538062018195614e-05,21,34.010416666666664,0.014741994060808127,1.961941801491702e-05,64.10713692788384,0.1580977847850317,64.20280367709809,8.012913092142096,1000.0,1030.0,1015.0,0,S10
0.387589925,0.0023816011496557714,-4.229194041252905e-05,29,34.00666666666667,0.01445298892578605,-0.0001789013125909855,64.10208841042308,1.456798346479138,78.49203781276162,8.101568664548175,1010.0,1040.0,1025.0,0,S10
0.39414573333333336,0.011883868979793108,0.00026486478922147275,9,34.007083333333334,0.015132516497779191,5.128828390851588e-05,64.24601704015066,4.2933236321064925,92.76852914647294,40.82526072278453,1020.0,1050.0,1035.0,0,S10
0.4050080166666667,0.014931416911433945,0.00039478399194388495,21,34.00866666666666,0.01726911179598459,0.00022223765539265686,63.96278282993321,4.330598032312418,92.76852914647294,42.883355985225265,1030.0,1060.0,1045.0,0,S10
0.4172667500000001,0.00809127959003807,0.00018163944023890654,23,34.016,0.01685229954635279,5.889297867920484e-05,63.50558318625564,4.645704558001013,92.76852914647294,58.37943010402579,1040.0,1070.0,1055.0,0,S10
0.42175456666666666,0.0031132383374158036,4.38303562747396e-05,26,34.01658333333333,0.016406087962162943,-3.934300993144829e-05,62.94738813306062,2.1930938327288096,74.49161026585477,43.473897588013145,1050.0,1080.0,1065.0,0,S10
0.423609375,0.0028362694190976127,3.12912736995615e-05,22,34.02224999999999,0.01729462826043604,0.00011705674005152096,62.89695940931116,2.673480327861967,75.33259586659682,58.05979616931343,1060.0,1090.0,1075.0,0,S10
0.42480324166666666,0.00450138959655022,4.491013612056468e-05,20,34.03341666666667,0.02226715942568501,0.00041895270504872497,63.494822105037855,3.6865836736644466,91.00549433962765,66.25384135509091,1070.0,1100.0,1085.0,0,S10
0.427521475,0.004857474657615315,6.516310507674068e-05,20,34.05291666666667,0.022560874441288174,0.00047749843739150016,63.56623705068354,3.6776587502070694,91.00549433962765,66.50914795892533,1080.0,1110.0,1095.0,0,S10
0.4283528833333333,0.004570390193377612,1.1297152580039788e-05,28,34.07375000000001,0.022511571098734376,0.0005616015001041804,63.796957455663765,3.8283877459787785,91.00549433962765,61.290892783693586,1090.0,1120.0,1105.0,0,S10
0.4295041333333333,0.0026717692325914392,-2.5419334676027136e-06,24,34.08733333333335,0.015260697523013074,0.0002566844919786147,63.412323026550546,2.0130296511494827,74.83982896827064,39.881887701548045,1100.0,1130.0,1115.0,0,S10
0.43117774999999997,0.004129220871322662,9.709960413917486e-05,14,34.08950000000001,0.013028814220795184,-0.00014882977984583052,63.349562464744054,2.0247474391037548,74.83982896827064,39.61426428384099,1110.0,1140.0,1125.0,0,S10
0.43459964999999995,0.0041393353787172165,9.448015834432852e-05,23,34.08283333333333,0.013365585991228212,-0.00018883255781655973,62.983525158372835,2.32749334935279,73.98648525237566,33.26907996256517,1120.0,1150.0,1135.0,0,S10
0.43920471666666666,0.004094200720090419,9.589098548510382e-05,22,34.08183333333333,0.014258525714658549,0.0001282727967220671,62.86677791513421,2.282520807322522,73.98648525237566,29.853717233648922,1130.0,1160.0,1145.0,0,S10
0.4429568583333333,0.004486722494010961,0.00010828149524272525,23,34.08,0.015275252316520459,-1.9445794846912265e-05,62.89570857476988,2.2850622626714,73.98648525237566,29.078837539810063,1140.0,1170.0,1155.0,0,S10
0.4470288333333333,0.0033107594781593835,7.814024585040685e-05,21,34.07683333333334,0.01741566982793379,-0.00030495173275938906,63.06500879866054,0.42386934881869043,64.26507605223851,18.769536444099757,1150.0,1180.0,1165.0,0,S10
1.0913333916666668,0.909010559999161,0.021391984905201757,10,34.078500000000005,0.01819569546165757,0.00016521980693112511,63.03239263346507,1.4863194701558589,74.67261881037788,57.17204150334079,1160.0,1190.0,1175.0,0,S10
1.7074108916666664,0.889780889488931,0.020400345853878746,20,34.08116666666667,0.017472995036787602,0.00014744079449972576,63.36242449174954,3.492109562141998,90.74139077620532,77.08990958790153,1170.0,1200.0,1185.0,1,S10
2.3102702333333336,0.05209359466683234,-0.0014412818945760222,10,34.08383333333333,0.015447941250824361,-0.00026481005625404974,63.21999293345266,5.128270679367701,90.74139077620532,82.39518333308723,1180.0,1210.0,1195.0,1,S10
2.2643691666666665,0.028666515321693516,-0.0007518112646711548,16,34.071000000000005,0.016703293088492093,-0.0003093270365998409,63.580425961391484,8.17696569036152,131.55227098001768,70.1199598402128,1190.0,1220.0,1205.0,1,S10
2.218670658333333,0.046607114263542755,-0.0012323832245294795,13,34.05766666666667,0.018107702474055874,-0.0003926661573722129,63.27954664989871,7.564653051085248,131.55227098001768,57.46227325330508,1200.0,1230.0,1215.0,1,S10
2.1814466833333332,0.045734652261347625,-0.0011078063129383946,8,34.038,0.02166410241236179,-0.000488089450656215,63.40314801693706,6.616203962673988,131.55227098001768,55.03150105413111,1210.0,1240.0,1225.0,1,S10
2.1594875250000003,0.025487054336454328,6.369674630182552e-05,10,34.02033333333333,0.022432615144520773,-0.0004833669004793028,63.15960291853858,4.925906939085735,86.85620300243386,58.63470324762888,1220.0,1250.0,1235.0,1,S10
2.132017291666666,0.04816335614056875,-0.0009280114903812703,12,34.00233333333334,0.019005847053531512,-0.00033210639627749756,63.194682367675085,4.9022566689897475,86.85620300243386,51.369205479926286,1230.0,1260.0,1245.0,1,S10
2.085188866666667,0.07241244593253443,-0.002019112535592744,7,33.98683333333334,0.02016528920915594,-0.0004477394263490972,63.6108482892928,6.552478913859645,111.03603018840326,51.08579386977905,1240.0,1270.0,1255.0,1,S10
2.0646581333333334,0.05544548598908262,0.00017717751232724417,7,33.970666666666666,0.017782638224465106,-0.0004201680672268787,63.610972774987914,4.666634328194284,111.03603018840326,47.76056127349973,1250.0,1280.0,1265.0,1,S10
2.13322185,0.20452636057383286,0.003679791964719768,3,33.949999999999996,0.022211108331944382,-0.0005458712410585272,63.6205616308863,4.7362929706609815,111.03603018840326,48.74608274176159,1260.0,1290.0,1275.0,1,S10
2.228531025,0.19254095482816386,0.002476561181332039,5,33.92799999999999,0.025219040425838307,-0.0006553232863393461,62.8436867251561,2.6164936060380137,77.9615289742319,43.920452298492634,1270.0,1300.0,1285.0,1,S10
2.2964019249999996,0.19766140059772092,0.0013174830300715288,4,33.903666666666666,0.022801072099550967,-0.0005387874157927562,62.75364803712858,2.6794883900079527,73.33484846919642,59.593053108784325,1280.0,1310.0,1295.0,1,S10
2.5264270416666665,0.37898113664845723,0.008672698315855265,7,33.88591666666666,0.018596407956615095,-0.00037117160913959315,62.86175762429769,3.114390531717492,80.06247560499239,65.0252577887474,1290.0,1320.0,1305.0,1,S10
2.787565575,0.4044419435845657,0.009327856125425376,10,33.866416666666666,0.02212825619478803,-0.00047680394471829847,62.53919502048417,5.336111523370443,83.83913167489273,81.53764007665927,1300.0,1330.0,1315.0,1,S10
2.9865468666666666,0.21421931868690608,-8.334839919439633e-05,8,33.846,0.02576819745344944,-0.0006536565039238801,62.55165066062779,6.744701596867162,86.07554821202127,75.11682340398558,1310.0,1340.0,1325.0,1,S10
3.000689925,0.11571283838351464,-0.0010869525835127357,7,33.82691666666667,0.017358755395732325,-0.0003740884783666361,62.92225486737769,10.291088818557098,135.25161736556055,81.32571863534658,1320.0,1350.0,1335.0,1,S10
3.034108358333333,0.12117236234449916,0.0028613922043197446,5,33.813583333333334,0.012961213506286224,-0.00023296756719202067,63.13940522450806,9.778318254964132,135.25161736556055,75.82950164220755,1330.0,1360.0,1345.0,1,S10
3.089166158333333,0.08327918445145778,0.0005048783353010605,7,33.80433333333334,0.016162370563200513,-0.0003026599069377859,63.111728608366505,8.723132774251834,135.25161736556055,66.45611405260033,1340.0,1370.0,1355.0,1,S10
3.068848591666667,0.10031426638116632,-0.0027585940447253173,8,33.79033333333333,0.017885437900394714,-0.0003732203625252466,62.580400359307916,3.545206745555593,79.12648102879339,49.13689189142919,1350.0,1380.0,1365.0,1,S10
3.0009137249999998,0.06565683416357135,-0.0013800509722897425,7,33.773999999999994,0.0218479594775661,-0.0005025348982567679,63.01057950451466,0.36542738253135204,63.52164985262898,31.66097983048517,1360.0,1390.0,1375.0,1,S10
3.0774158333333332,0.17697164891964726,0.0036509233766233817,2,33.755500000000005,0.020649858756581187,-0.0004705187860268275,62.98735539647296,0.4393861154027102,64.91532946846992,34.99365380521001,1370.0,1400.0,1385.0,1,S10
3.106584458333333,0.16045575265686673,0.0005166646885200366,2,33.73575,0.02227339593925243,-0.0005186124036390407,62.99295112459684,0.36024336332500345,64.91532946846992,36.46996642206281,1380.0,1410.0,1395.0,1,S10
3.1429427666666667,0.1495918362961213,-0.0024180450517397147,3,33.714749999999995,0.023308170956411654,-0.0005681991804986319,62.96985492225833,0.675058814528276,66.94027188471824,39.334483467559636,1390.0,1420.0,1405.0,1,S10
3.050866708333333,0.07480136354889037,1.882622751578434e-05,4,33.69308333333334,0.021671634045965255,-0.0005463921105631877,62.066118498126585,4.779846710565974,66.94027188471824,52.59678762311282,1400.0,1430.0,1415.0,1,S10
3.027795466666667,0.08281550643216255,-0.0010540203208556204,4,33.671749999999996,0.02011063151668868,-0.0005240294464894292,62.04565195386464,4.78055857474413,66.94027188471824,51.5914315331421,1410.0,1440.0,1425.0,1,S10
2.972931808333333,0.050762281677655084,-0.0014039776685880962,11,33.64541666666666,0.02676738791058072,-0.000715014931592542,62.036893996292186,4.7424097207509766,64.89221833163049,48.94550978830949,1420.0,1450.0,1435.0,1,S10
2.9449924916666665,0.04208708888602215,-0.00021015381970970003,9,33.61808333333334,0.027847675945318714,-0.0007411278561010854,63.08195476264943,1.6932168564745878,71.2320152740325,51.49284751194955,1430.0,1460.0,1445.0,1,S10
2.9237049083333337,0.044189968756682727,-0.00012826911243836133,7,33.592000000000006,0.02181742422927174,-0.0005342037641502885,63.020647832115735,1.6875860927506605,71.2320152740325,52.625952263487726,1440.0,1470.0,1455.0,1,S10
2.9355052666666666,0.05596782066237307,0.00021623967636641067,5,33.5705,0.021049544729836382,-0.000533717619279193,63.06976164469854,1.6847846788979004,71.2320152740325,50.998854107769475,1450.0,1480.0,1465.0,1,S10
2.941208283333333,0.05173585919073012,0.0006958361761233423,5,33.547583333333336,0.025298084029339786,-0.0006325786512953272,62.97889341201878,0.22505835742391134,63.7102817447859,18.814599685520523,1460.0,1490.0,1475.0,1,S10
2.9582426416666663,0.0577459726425136,0.00035579124591985197,7,33.521,0.02624880949681185,-0.0006706021251475879,63.07346929752065,0.1935736932569414,63.7102817447859,16.24540932570559,1470.0,1500.0,1485.0,1,S10
2.981438325,0.06123390360918837,0.0006522846621293111,7,33.498833333333344,0.023564922141937006,-0.000512882839086136,63.07293444272933,0.21588758610824502,63.7102817447859,19.295072848326388,1480.0,1510.0,1495.0,1,S10
2.9853611333333334,0.0787028284107305,0.00037254606569900035,4,33.47525,0.02352170983014068,-0.0005272935620528836,63.20283036215501,4.847910293379667,96.40539403996023,65.11581508993332,1490.0,1520.0,1505.0,1,S10
2.98710935,0.06744928462391206,-0.0006186157580387496,5,33.45049999999999,0.031671490860605236,-0.0008070699354122149,63.06165849444361,4.9776729432704725,96.40539403996023,77.0926234039649,1500.0,1530.0,1515.0,1,S10
2.9539574583333335,0.061545095078174974,-0.00047655697270643124,10,33.42141666666666,0.029362556466055012,-0.0007362664073895343,63.09255212867788,4.980448362353044,96.40539403996023,76.50351721471519,1510.0,1540.0,1525.0,1,S10
2.9621228000000004,0.04461490089768216,0.0004181533925967093,6,33.39241666666667,0.029495644687910962,-0.0007102923814152501,62.94820830808068,1.1574702886688721,65.16133823057964,44.19681965556647,1520.0,1550.0,1535.0,1,S10
2.987471775,0.06348050222042757,0.0013589285054517737,8,33.36633333333334,0.02822331581433095,-0.000681714007917157,63.08665302399369,0.35243471768386897,63.788713735268246,13.819725334694205,1530.0,1560.0,1545.0,1,S10
3.0038771583333332,0.051158446059113884,-0.000318624630182643,6,33.34225,0.022966007489330083,-0.0005002083478020832,63.06342571683783,0.335663805336418,63.608175575157006,12.17283348251571,1540.0,1570.0,1555.0,1,S10
2.9907656333333335,0.062410569169269896,-0.000820168518647127,10,33.322583333333334,0.020554635865311185,-0.00045228835335801024,63.114998208863035,1.7455661245612466,74.73285756613352,89.399287541865,1550.0,1580.0,1565.0,1,S10
2.9585090999999997,0.04701985379397373,-0.0003087552885617122,12,33.294333333333334,0.0334846565194005,-0.0008401972359191989,63.05531966956705,1.7516643615080754,74.73285756613352,89.68503387163075,1560.0,1590.0,1575.0,1,S10
2.9304099166666666,0.05391885646051594,-0.0007629296062226609,10,33.256083333333336,0.04429627210299159,-0.0012118549899299083,63.001272564922694,1.7577415055455938,74.73285756613352,90.16507063282445,1570.0,1600.0,1585.0,1,S10
2.8877814666666666,0.05215672439787181,-0.0014325924300298608,15,33.22441666666667,0.02906303016242864,-0.0006102854364886289,63.40395006316476,4.785127973319219,113.94735626595292,60.979474265196174,1580.0,1610.0,1595.0,1,S10
2.852348333333333,0.042411574815006445,-0.0008041193068963142,20,33.20008333333333,0.021389087300666774,-0.0003570734078756496,63.420055802459245,4.785031035735914,113.94735626595292,72.14495172524201,1590.0,1620.0,1605.0,1,S10
2.80234325,0.05874430943365917,-0.001346745885130907,12,33.18716666666666,0.02356492214193789,-0.0004896867838043327,63.41732916287251,4.781983045544951,113.94735626595292,72.86000543660577,1600.0,1630.0,1615.0,1,S10
2.7500463,0.0737173272430573,-0.0020239812278630555,12,33.167083333333316,0.019467743977040004,-0.00040791027154677556,62.900942300833655,0.3105763468064909,64.319514923544,43.07739133226449,1610.0,1640.0,1625.0,1,S10
2.674425766666667,0.05663953816912901,-0.0016131684561427923,15,33.15091666666666,0.018529068753956195,-0.00041075769150635314,62.866562024968985,0.21302385013891545,63.984373092185564,20.33264277515892,1620.0,1650.0,1635.0,1,S10
2.607898025,0.0599270990297743,-0.0017207029203416895,14,33.14041666666666,0.012609244844775866,-0.00017164386415727926,62.870123789802804,0.21802443641138933,63.694583757176716,18.69516189623371,1630.0,1660.0,1645.0,1,S10
2.5464884833333334,0.05197926889122612,-0.0014724849156191426,16,33.13399999999999,0.013063945294842757,-7.444961455652564e-05,62.88274874311598,0.2271060915350182,63.694583757176716,18.138173326004104,1640.0,1670.0,1655.0,1,S10
2.489719375,0.04303932400666907,-0.0012273998992985645,17,33.13,0.014605934866804117,-0.0001800125008680398,62.89131949741465,0.22045076724618184,63.694583757176716,21.628931162270185,1650.0,1680.0,1665.0,1,S10
2.4395060749999997,0.04513868197513867,-0.0012884145669838129,18,33.123666666666665,0.013161391348266941,-0.00013431488297778273,62.880784381350914,0.1787612543453424,63.694583757176716,19.40408805563491,1660.0,1690.0,1675.0,1,S10
2.383630891666667,0.04965663977301119,-0.0014214708139454063,16,33.1175,0.013181426326464645,-0.00010771581359815816,62.896272345949384,0.15997390671281922,63.694583757176716,18.93582592967333,1670.0,1700.0,1685.0,1,S10
2.3265264083333337,0.05093677218449289,-0.0014576415202444577,10,33.11100000000001,0.015022205785658112,-0.00020043058545738833,62.962636524330826,0.15188341472425107,63.40346993658943,14.431257578795952,1680.0,1710.0,1695.0,1,S10
2.277576658333333,0.037232751606055985,-0.0010318854330161789,12,33.104833333333346,0.015383071503729879,-0.0001493853739843105,63.14760970788584,1.5207634641373162,72.04165461731151,46.57806088819248,1690.0,1720.0,1705.0,1,S10
2.24025675,0.02937044952194013,-0.0007594159247169912,21,33.09566666666667,0.016162370563200454,-0.00021765400375038042,63.363490716402566,1.9411450827707057,76.0723339986358,67.78164057671394,1700.0,1730.0,1715.0,1,S10
2.2019774416666666,0.04080982391998195,-0.00109928777345649,18,33.08483333333333,0.017028570762757277,-0.0003493992638378806,63.308376682517036,1.96199944559954,76.0723339986358,73.1189787795948,1710.0,1740.0,1725.0,1,S10
2.1538165,0.05140716813733278,-0.001452915174664902,16,33.07283333333333,0.015339672602620757,-0.0002727272727273729,63.17854754720375,1.2732359662356365,76.0723339986358,59.679991881469135,1720.0,1750.0,1735.0,1,S10
2.10295865,0.04108486500416952,-0.0011545306340718054,14,33.06283333333334,0.01311381798799497,-0.00018105423987780053,62.97588430968069,0.3235151934336277,64.10148204214939,36.616093910613046,1730.0,1760.0,1745.0,1,S10
2.0565992416666665,0.03575986009550276,-0.0010176272414751022,16,33.05433333333334,0.015744487571493448,-0.00024543371067428665,63.00901197446786,0.28473964956264547,63.7808748764079,35.019522369276004,1740.0,1770.0,1755.0,1,S10
2.0157144083333334,0.0375103791839663,-0.0010666126085144777,15,33.041999999999994,0.016103829772240716,-0.00031404958677674005,63.05418304256535,0.33416687647042437,63.7102817447859,36.74779585075667,1750.0,1780.0,1765.0,1,S10
1.9735471416666668,0.03543268163322665,-0.0010098295263560023,14,33.03083333333333,0.01557687031752108,-0.00028439474963551413,63.14850671153867,0.3643717461887922,63.7102817447859,37.635148863702604,1760.0,1790.0,1775.0,1,S10
1.9346737333333333,0.03240803114706119,-0.0009235726230988352,10,33.019999999999996,0.014142135623731487,-0.0001783457184527956,63.186997803356675,0.3807561756105122,63.7102817447859,28.19104340021943,1770.0,1800.0,1785.0,1,S10
1.8976064,0.031400599972611985,-0.0008978475727481092,17,33.01233333333333,0.01595479725836606,-0.00021487603305787606,63.19669698719651,0.40102773195980085,63.7102817447859,32.52106129324332,1780.0,1810.0,1795.0,1,S10
1.861618925,0.03174628435585349,-0.0009099832800888968,17,33.001000000000005,0.016703293088490192,-0.00030877144246123085,63.09522485158451,0.42926401509767037,63.7102817447859,31.353028581338393,1790.0,1820.0,1805.0,1,S10
1.8271985000000002,0.029957048032419123,-0.0008569326411556363,16,32.98966666666667,0.01662995957768893,-0.0003400236127508459,63.03809393379227,0.4066692280574077,63.7102817447859,30.625237441143025,1800.0,1830.0,1815.0,1,S10
1.7922983416666667,0.02972474626342386,-0.000851682057781798,19,32.97866666666667,0.014079141387962313,-0.00020390304882295432,63.028824284721864,0.40903457757824263,64.5600495662759,35.585492746244995,1810.0,1840.0,1825.0,1,S10
1.763676825,0.025555112163603903,-0.0006637427078269331,14,32.97266666666667,0.013523641850067184,-0.00013292589763186773,63.1226247230877,2.085884640842749,78.04485889538144,45.873624356001734,1820.0,1850.0,1835.0,1,S10
1.7453633000000002,0.01645688416468927,-0.00026811141745955523,16,32.966,0.013063945294842758,-0.00015334398222099625,63.12704095345957,2.090063904980947,78.04485889538144,46.986745519939504,1830.0,1860.0,1845.0,1,S10
1.7290964916666667,0.019936744952472323,-0.0003974852871727202,14,32.96183333333333,0.01329055637995873,-0.00013313424543383342,63.04723945227428,2.100539005649925,78.04485889538144,41.2409007673713,1840.0,1870.0,1855.0,1,S10
1.7088322249999999,0.028356817271590538,-0.0007797965032293971,18,32.95333333333333,0.014681810363696167,-0.00014723244669768306,62.95885871836734,0.4903490736130515,65.0384501660364,30.71912548657143,1850.0,1880.0,1865.0,1,S10
1.68218275,0.021743357988992875,-0.0005800889297867893,14,32.949333333333335,0.015902480589168776,-0.0001438988818667802,62.88879203390276,0.7010728800875031,65.0384501660364,51.94167130053725,1860.0,1890.0,1875.0,1,S10
1.6586992333333332,0.019588177630794432,-0.0005192286269879935,18,32.940666666666665,0.015260697523014271,-0.00015112160566710863,62.85733923890151,0.6806152650256547,64.45153217728807,51.288904478833324,1870.0,1900.0,1885.0,1,S10
5.137723425,0.14283203210447706,-0.0032515870372942534,24,34.062666666666665,0.014126413400279174,0.00020390304882280224,65.23794026159325,4.21736297048167,86.23804264940155,50.5771743212923,0.0,30.0,15.0,0,S11
5.007343733333332,0.17599210925463543,-0.004502431710535436,15,34.068666666666665,0.011469767022724493,0.00011667476908103309,65.28871961197382,5.425995278508754,94.45633912025174,52.157066077098634,10.0,40.0,25.0,0,S11
4.872284124999999,0.13137737402692054,-0.0023272149420098627,11,34.074,0.009521904571391956,0.00011889714563509628,65.4357016564839,5.443860338977922,94.45633912025174,52.60288414436565,20.0,50.0,35.0,0,S11
4.816986991666666,0.056208990571867276,-8.410912910617832e-05,24,34.075833333333335,0.010454929725043097,5.548996458087377e-05,64.65519787230974,3.861828767023384,94.45633912025174,42.560992913357104,30.0,60.0,45.0,0,S11
4.791412633333333,0.054372105354819164,-0.00027830647961663924,21,34.08183333333334,0.01110430347007835,0.00012382804361418882,64.2464383819008,2.7407703127570904,79.30952023559341,44.92490642913646,40.0,70.0,55.0,0,S11
4.7654118,0.044220331086993615,-0.0012535588651989944,18,34.08766666666668,0.012957194483718371,0.00026154594069036476,64.03023901907488,2.0845042160679834,68.05879810869422,33.13230809436195,50.0,80.0,65.0,0,S11
4.716619041666666,0.04191341111414416,-0.0011649150461837535,15,34.09383333333334,0.009414822828331126,7.938051253558058e-05,64.1059933242086,2.607032780100942,72.62231062146122,32.91710271272367,60.0,90.0,75.0,0,S11
4.683166616666667,0.02929635708985653,-0.0007457785610111862,15,34.09966666666667,0.015912957683039426,0.00019042989096475983,64.32843545734643,1.6337252757677718,72.62231062146122,28.453639718359796,70.0,100.0,85.0,0,S11
4.64998075,0.029412893054818087,-0.0007406036530314732,22,34.105333333333334,0.017650936393164722,0.00030168761719576376,64.36465852644713,1.6378032362051314,72.62231062146122,30.785299785593917,80.0,110.0,95.0,0,S11
4.615632841666667,0.04079006466285552,-0.001163488662407122,21,34.10866666666667,0.016275407487644746,1.1111882769627767e-06,64.34196082400784,0.49538939751916755,65.28399497579785,31.169419574386794,90.0,120.0,105.0,0,S11
4.567692891666667,0.04359987793461434,-0.0012496447149107593,23,34.107000000000006,0.012819256348685533,-0.00015042711299399438,64.36641094552989,0.31380778273632637,65.00769185258002,33.53941671863703,100.0,130.0,115.0,0,S11
4.523590725000001,0.036657051751098464,-0.001039835651781361,17,34.10200000000001,0.012220201853214227,-8.889506215712562e-05,64.3418034317117,0.27202540624034954,65.12296062065974,36.25523317015383,110.0,140.0,125.0,0,S11
4.483142825,0.032058436143669045,-0.0009054705986526881,19,34.096166666666676,0.012857120811267608,-0.00020216681713990808,64.30475120292877,0.3010637741380241,65.12296062065974,38.87110545122174,120.0,150.0,135.0,0,S11
4.4445084,0.03670015955968942,-0.0010454618654073117,21,34.092000000000006,0.013999999999999986,-0.00010389610389615199,64.19809368500655,0.31053804563858506,65.12296062065974,38.7336665347114,130.0,160.0,145.0,0,S11
4.402558549999999,0.03873871209157792,-0.0011001212931453686,21,34.08500000000001,0.012714820748508132,-9.542329328438054e-05,64.17029191025428,1.9361394972355803,73.78346698278686,41.055021808053176,140.0,170.0,155.0,0,S11
4.359768808333333,0.03711519884187065,-0.001054078918674936,20,34.0795,0.015267066952541417,-0.00022494617681768887,63.86861658574305,1.9790103814826572,73.78346698278686,41.2127958984929,150.0,180.0,165.0,0,S11
4.310123216666667,0.0472661677106687,-0.0013390648725606028,22,34.07483333333334,0.012381662067574106,-3.215501076450364e-05,63.58443109288495,1.9799299467831026,73.78346698278686,42.90975007687323,160.0,190.0,175.0,0,S11
4.239647125,0.07702636381336836,-0.0021533871553580113,21,34.07533333333334,0.013597385369582885,0.00014000972289740236,63.81039777702798,1.6707689459640873,79.13279977354523,41.605299512118116,170.0,200.0,185.0,0,S11
4.154576933333333,0.08362976354950168,-0.0023587565525383684,17,34.08133333333334,0.013349989596335435,0.00016390027085214792,64.28967980240756,1.6619479245483566,79.13279977354523,44.03882658132165,180.0,210.0,195.0,0,S11
4.079912766666667,0.06218055916210647,-0.0015283740468088136,13,34.085666666666675,0.012957194483718676,0.0001343148829778141,64.79360437569191,2.3658329061140715,79.13279977354523,46.45620033601244,190.0,220.0,205.0,0,S11
4.045882733333333,0.03591872769246645,-0.00023193564830890939,17,34.08983333333334,0.012779106211138135,6.826862976603277e-05,64.8691891859909,2.1824972742531212,74.1215218408257,49.77072409196885,200.0,230.0,215.0,0,S11
4.029325166666667,0.03472844596468757,-0.00018098663101603858,15,34.09116666666667,0.013734587321389621,6.271268838110047e-05,64.66724959445108,2.9120719809613282,74.1215218408257,46.037727190738785,210.0,240.0,225.0,0,S11
4.015569808333334,0.033838788313436965,-0.0006820650566011584,13,34.095000000000006,0.01678292783356515,7.40329189526081e-05,64.72166954940239,2.2632183731634763,73.54590403278758,38.10864934047854,220.0,250.0,235.0,0,S11
3.9860724250000006,0.02593281935523095,-0.0007156183936384323,19,34.096500000000006,0.017351753033434995,6.382387665813919e-05,64.63594020439751,2.520628339696639,74.49161026585477,31.861777466634425,230.0,260.0,245.0,0,S11
3.9348383916666667,0.06028731437960171,-0.001577217199111052,19,34.101333333333336,0.016069294390924763,4.3891936940094544e-05,64.9439440888188,1.7080572360759279,74.49161026585477,42.21281957328116,240.0,270.0,255.0,0,S11
3.8767497166666667,0.06564800209947792,-0.0017758036808111718,9,34.10550000000001,0.013282193593930734,0.00019591638308225174,65.01330313031286,1.7113589393768442,74.49161026585477,41.86209733026869,250.0,280.0,265.0,0,S11
3.801668325,0.06286728603006528,-0.0016357917181748793,19,34.112500000000004,0.009853087502572093,0.0001271616084450031,64.90591866092441,1.876625370569157,72.91776189653656,42.31947653267937,260.0,290.0,275.0,0,S11
3.6165247750000002,0.2256840316674865,-0.005867115726786606,22,34.12116666666667,0.013612698320155664,0.00020994513507874285,64.66132359100487,1.8339115189552753,72.91776189653656,41.219447806745976,270.0,300.0,285.0,0,S11
3.4165714916666663,0.22903212906224152,-0.006019819636780342,11,34.1255,0.013282193593931516,5.007292173069159e-05,64.38449393386074,1.812992245060316,72.91776189653656,43.325655774273436,280.0,310.0,295.0,0,S11
3.2134200666666666,0.08070920319607644,-0.0022823376276130394,13,34.12616666666667,0.01298610368389597,-0.00018827696367801187,64.23489706231528,0.4316627469327466,65.28399497579785,41.691591838079965,290.0,320.0,305.0,0,S11
3.1230918250000004,0.07784220167713897,-0.0022431950309049456,15,34.12383333333334,0.011774501640787496,-3.784985068410092e-05,64.17562034899485,0.3508363650040345,65.0384501660364,34.61264172947588,300.0,330.0,315.0,0,S11
3.0453604833333334,0.06252626806484127,-0.001771670886867146,9,34.12083333333334,0.014117561955081504,-7.382457115074861e-05,64.12816151062177,0.3472289364025562,65.0384501660364,35.39643429066063,310.0,340.0,325.0,0,S11
2.981309191666667,0.04556181683078053,-0.001299441388290869,12,34.1225,0.015069284433354308,-3.4516285853315024e-05,64.12871183894576,0.376365793862597,65.0384501660364,37.742697739651135,320.0,350.0,335.0,0,S11
2.9405829000000003,0.0576108801385641,-0.0007280127231057689,14,34.123333333333335,0.014907119849998594,0.0001077852628655832,64.17306934196682,0.9576905716962861,72.13875518748573,36.05870901266048,330.0,360.0,345.0,0,S11
2.9788778583333335,0.0967757921641819,0.0018501921070907818,11,34.131499999999996,0.013456720749622366,0.0002242516841448582,64.58678352473923,1.6700480816853398,72.37402849088892,37.91109386876603,340.0,370.0,355.0,0,S11
3.036636066666667,0.10243255982740818,0.0021806633446767023,22,34.13716666666666,0.013113817987992377,0.00019883325230909583,64.99080019320279,1.9589683289578963,72.37402849088892,37.44263690077574,350.0,380.0,365.0,0,S11
3.13028795,0.05437991230743359,0.0009874153205083544,10,34.14908333333333,0.017368354044704208,0.000306861587610178,65.30157722313473,2.6243752598106895,74.75961476626267,60.38884269534673,360.0,390.0,375.0,0,S11
3.1601158249999997,0.0518684121229968,0.000868107267865814,19,34.16074999999999,0.02082316418478885,0.00043603722480728305,65.06180500581709,2.472150760983965,74.75961476626267,63.47102964471053,370.0,400.0,385.0,0,S11
3.1770125749999996,0.039794927976159335,-0.0004794685498992826,15,34.181333333333335,0.023626726862226693,0.0005119799986110636,64.83229737129564,3.7179587894289887,93.94679345246436,75.32490443069315,380.0,410.0,395.0,0,S11
3.1557130166666667,0.046161021932647754,-0.0005481713730120066,25,34.197250000000004,0.021484975370399645,0.0004320786165705466,65.04805773940694,5.888563859786248,113.75851616472501,97.93613230570217,390.0,420.0,405.0,0,S11
3.150809225,0.04182587929569093,0.00019421135842765205,22,34.217416666666665,0.0201451331315745,0.0004167303284950134,64.8856938027531,5.84423417298634,113.75851616472501,96.74715405342681,400.0,430.0,415.0,0,S11
3.1385177416666665,0.04312526056897043,-0.00010484781929303423,24,34.23266666666667,0.02056426242025005,0.00046072643933609507,64.97498747200143,5.3135991894939165,113.75851616472501,91.33158253248922,410.0,440.0,425.0,0,S11
3.146331841666666,0.03422445678726344,-0.0002450473123133553,20,34.24833333333333,0.014962917124977815,0.0002821029238142022,64.42335233286681,2.537716991438863,79.26537705707328,72.98532530541671,420.0,450.0,435.0,0,S11
3.1314711916666664,0.032373179079369555,4.02732238349957e-05,20,34.25666666666666,0.012995725793080651,0.00015001041739016527,64.47936681158265,2.742186884715875,79.26537705707328,80.5482660133041,430.0,460.0,445.0,0,S11
3.1372491583333333,0.026749070124646647,-0.00014825213903743768,18,34.26316666666666,0.011689263830066859,0.00011938329050638344,64.44437224423174,2.1345302481409085,79.26537705707328,75.91493532895882,440.0,470.0,455.0,0,S11
3.1303412083333333,0.015054952793513854,3.3671362594614324e-05,27,34.273,0.016462077633154184,0.0002948815889991571,64.63473179585027,1.1297989549044911,70.21395872616783,49.73460986409095,450.0,480.0,465.0,0,S11
3.127804025,0.010178707773634202,-0.0002068984269740902,24,34.28116666666667,0.015447941250822652,0.00019438849920134528,64.82414124670434,0.3728873297117239,65.39877674696982,28.91245139485274,460.0,490.0,475.0,0,S11
3.1171009833333327,0.013235068428851762,-0.00035428781859853147,25,34.285333333333334,0.012310790208411897,-8.500590318783762e-05,64.85498335296126,2.0284150513277113,81.12336284942828,28.306413719135968,470.0,500.0,485.0,0,S11
3.098317316666667,0.022194591629112165,-0.00047971725119798494,31,34.28866666666667,0.01257864150940831,0.00011000763941947122,64.92143410047456,2.995673714610339,81.12952606788727,41.335157493265406,480.0,510.0,495.0,0,S11
3.089884891666667,0.017456288400266067,-9.561070560455055e-05,31,34.29283333333334,0.01348970801100676,0.00022425168414469114,64.86219347939765,3.097718037714997,81.12952606788727,43.46826526321306,490.0,520.0,505.0,0,S11
3.0849064166666667,0.01456727103566036,0.00017119097159524455,33,34.30116666666666,0.01232770141681905,0.00014216265018401984,64.62787097233776,2.3850143779152067,81.12952606788727,44.14451493854839,500.0,530.0,515.0,0,S11
3.0863029583333335,0.007157822359018483,-0.0001583918015140061,26,34.30449999999999,0.011536174987115566,0.0001460518091533782,64.45752644090486,0.8816377487668999,72.29107828771127,39.332595229568255,510.0,540.0,525.0,0,S11
3.0792564166666665,0.008129768279378547,-0.000211108868671442,24,34.308166666666665,0.010953183200432015,3.340509757613328e-05,64.24103885790016,0.3249509569583653,64.7533782902483,40.97826792532503,520.0,550.0,535.0,0,S11
3.071708875,0.006646479503670188,-0.00017189369053407093,22,34.31133333333334,0.011469767022722982,7.000486144874119e-05,64.167180655284,0.36229833767262737,64.7533782902483,44.39135329460444,530.0,560.0,545.0,0,S11
3.063926725,0.007585623709757883,-0.00019528473852349794,23,34.3135,0.015091388272786195,2.409889575674025e-05,64.10831897316464,0.33927142768843466,65.00769185258002,40.33463116506983,540.0,570.0,555.0,0,S11
3.055867483333333,0.008406347334983754,-0.00022640692409195217,25,34.31616666666666,0.014211693151141517,8.542259879110445e-06,64.15702008288949,0.33182437681596855,65.37583651472461,38.8911955973721,550.0,580.0,565.0,0,S11
3.0460918416666667,0.009411628678569066,-0.00025011506007360736,30,34.31766666666667,0.014302291968616262,2.805750399343439e-05,64.24255315026969,0.2787437319612554,65.37583651472461,35.668875127888306,560.0,590.0,575.0,0,S11
3.0325637583333336,0.018491878871996673,-0.00043309229460378743,25,34.31883333333334,0.012054275405661322,-4.771164664206321e-05,64.23118006051091,1.3027565777579964,73.08898685848642,40.55391730325061,570.0,600.0,585.0,0,S11
3.000657083333333,0.03906178430503471,-0.0010445496701159804,23,34.3195,0.012900258395344383,-4.1600111118822885e-05,64.45773047258797,1.4609297233395293,73.08898685848642,44.0856808760572,580.0,610.0,595.0,0,S11
2.9201352583333335,0.16152927527533495,-0.0029893336169178417,29,34.31816666666666,0.013415372608399973,-1.201472324467545e-05,64.58744657746378,1.6314853978083925,73.08898685848642,54.66863785165637,590.0,620.0,605.0,0,S11
2.895434975,0.15630046460692637,-0.0003894668622821004,25,34.3155,0.01377497731395575,-9.646503229397451e-05,64.58206329449166,1.7697741738065285,71.79832867135558,56.11907884721311,600.0,630.0,615.0,0,S11
2.8878553916666667,0.15865822666979776,0.001138103420376419,19,34.31316666666667,0.012779106211137948,-4.854503784977543e-05,64.77485946133825,3.710469210744136,88.10221336606703,94.98088201258655,610.0,640.0,625.0,0,S11
2.9110347749999996,0.07421711345128588,-0.0006921647996388634,14,34.31083333333334,0.01107424439358639,-1.1042433502240671e-05,64.92378795630154,3.924507281837366,88.10221336606703,91.70359690010346,620.0,650.0,635.0,0,S11
2.8965473083333335,0.05588566669367554,-0.00040379629488159033,22,34.31283333333334,0.01134190852056523,2.2848808945044545e-05,64.9714661522956,3.666322320042231,88.10221336606703,89.43700633158265,630.0,660.0,645.0,0,S11
2.879394716666667,0.03345675270434538,0.00016777222029307011,24,34.310500000000005,0.012237238250520066,-3.8961038961189006e-05,64.77667811962911,1.6452877517211189,71.11258679024411,50.22852321798564,640.0,670.0,655.0,0,S11
2.872476116666667,0.025089150057406393,-0.0006842634627404783,24,34.313833333333335,0.012986103683894832,1.7153969025561896e-05,64.58872177627141,0.8248349172627337,67.52777206453653,53.18794434100854,650.0,680.0,665.0,0,S11
2.8439594916666664,0.02935084979093332,-0.0008245617508160364,15,34.314,0.014047538337136213,0.00010556288631159248,64.74815234822015,0.7083554839726643,66.4981202741852,49.91337949380963,660.0,690.0,675.0,0,S11
2.814163575,0.025328393802102334,-0.0007033661400097359,20,34.31583333333333,0.012752995290866412,-9.340926453230563e-05,64.75776164436044,0.6250121163078785,66.4981202741852,43.01087629043186,670.0,700.0,685.0,0,S11
2.7980876500000003,0.018822376067086578,-0.00021284571150774725,25,34.3175,0.013181426326462927,9.674282936320092e-05,64.79934949635994,3.447603735243412,98.11218069128827,64.3961616725696,680.0,710.0,695.0,0,S11
2.794132583333334,0.018237668294669388,0.00010277183137718557,20,34.3195,0.01167975456363001,0.00014132925897623929,64.42771683379237,3.5170020734523386,98.11218069128827,75.2316085210181,690.0,720.0,705.0,0,S11
2.788749066666666,0.02166146792068554,-0.00029697155358010714,18,34.32491666666667,0.010164958872955042,7.997083130771338e-05,64.09844109481564,3.4973584147348107,98.11218069128827,74.42647155633799,700.0,730.0,715.0,0,S11
2.778760241666667,0.019924834109721724,-0.0004329124835057983,20,34.32741666666666,0.010606274348495377,0.0001437947079657852,64.09502427091535,1.4615734822811626,72.3118247591637,58.53965736522123,710.0,740.0,725.0,0,S11
2.7660104416666664,0.013788030036228185,-0.000119599614556566,21,34.331916666666665,0.011640148433570639,0.00014080838947158684,64.41543171699966,2.688337164968963,79.18333157931662,67.94773887252532,720.0,750.0,735.0,0,S11
2.7662449666666666,0.018923811502942246,0.0001063626224043278,16,34.33941666666667,0.015345782989327534,0.00023880130564616072,64.54231867151185,3.1167451780685522,79.18333157931662,81.66622754286703,730.0,760.0,745.0,0,S11
2.763867675,0.022989174439346623,-6.898318980485067e-05,16,34.348083333333335,0.01743061642308811,0.0002715813598165569,64.58813326705649,3.797767907199068,80.2122185206219,90.8413142640628,740.0,770.0,755.0,0,S11
2.745499741666667,0.046007347416381184,-0.0008412814257934624,19,34.361250000000005,0.017056890103413824,0.00028095701090337556,64.94119415698898,5.826631513798757,110.46718969902331,101.12605116055106,750.0,780.0,765.0,0,S11
2.7369287583333333,0.04396257494638589,-0.0002608434439891617,16,34.36633333333332,0.015595583420384999,8.083894714909402e-05,64.83934108945472,5.8659907164390335,110.46718969902331,101.12114570597433,760.0,790.0,775.0,0,S11
2.7348393250000003,0.04158225002974275,0.0003997840231960604,25,34.370666666666665,0.013888444437333015,-5.944857281752292e-05,64.69608221376866,5.598387820550403,110.46718969902331,103.1195134636128,770.0,800.0,785.0,0,S11
2.742994575,0.022724751662619072,-0.00020133072088340508,23,34.369666666666674,0.01580787426850511,5.250364608655299e-05,64.1227129749201,2.4938619453929656,80.51086883148137,79.15904483994373,780.0,810.0,795.0,0,S11
2.7280273250000002,0.02687106018227369,-0.0006157938363775292,28,34.37166666666667,0.014395215254458731,-1.2500868115968755e-05,64.1764497782859,2.2435003577329824,80.51086883148137,83.44633957083337,790.0,820.0,805.0,0,S11
2.7080816583333336,0.028843991534487697,-0.0004949367074102352,19,34.371249999999996,0.017727685504128548,-4.0454198208062494e-05,64.57368300833804,3.4984943531004085,88.6904729945669,67.91795250398332,800.0,830.0,815.0,0,S11
2.6891806833333334,0.030227887495375142,-0.00041517692200847896,18,34.37116666666667,0.01728117151378497,3.1252170289958068e-06,64.9642676506723,3.9552406515678658,88.6904729945669,74.4246834136513,810.0,840.0,825.0,0,S11
2.6680730333333336,0.03345239469851981,-0.0006822930759080518,15,34.37233333333333,0.01782943882708751,8.056115007990607e-06,65.2874602137124,3.6987663046286277,88.6904729945669,53.98336822417057,820.0,850.0,835.0,0,S11
2.654576916666666,0.026395447246189807,-0.00035071298006805773,12,34.37541666666666,0.01454280081537091,5.1704979512359215e-05,64.91288879945904,2.521613446928509,76.30203142774116,63.00511661233025,830.0,860.0,845.0,0,S11
2.6414858999999997,0.015880143003344387,-6.050638933259846e-05,19,34.381499999999996,0.01509138827278661,0.00016633099520801348,64.67894515676934,1.6610398573250715,74.97332859090625,55.0403511889232,840.0,870.0,855.0,0,S11
2.611626041666667,0.05611512654970968,-0.0013031585978192939,28,34.38716666666666,0.014444337606442929,0.00015716369192291348,64.17476415516794,5.324438527072328,85.70880934886448,60.86304101811067,850.0,880.0,865.0,0,S11
2.5532133916666666,0.07226108380937092,-0.001969383453712071,17,34.393499999999996,0.012822506255278329,6.896312243898729e-05,64.46145979472013,5.110792613057232,85.70880934886448,45.88631008505938,860.0,890.0,875.0,0,S11
2.4867612083333333,0.05667116859801755,-0.001480363535662204,16,34.39416666666666,0.012883020694782907,-2.1598722133455015e-05,64.68391347604275,5.123443252066777,85.70880934886448,45.80093963009929,870.0,900.0,885.0,0,S11
2.4380053250000002,0.032010584758577,-0.0009130685151746599,17,34.38999999999999,0.013662601021279173,-0.00022001527883888452,65.23148262681207,0.3469019668193461,65.95452979136459,38.08569600247652,880.0,910.0,895.0,0,S11
2.4184845249999998,0.0407607722669649,-0.00011876042433501922,16,34.38108333333333,0.01631950945613501,-0.0002634557955413557,64.97298210577395,3.6370679055311133,86.16843969807043,40.656284868462286,890.0,920.0,905.0,0,S11
2.4598043499999998,0.08039701117430195,0.0018583890339606867,18,34.376666666666665,0.01374368541872579,-1.1111882769594392e-05,64.52275463911596,3.671620956349568,86.16843969807043,40.00414094807005,900.0,930.0,915.0,0,S11
2.5099830166666663,0.07557930947741623,0.0016392885061462525,34,34.3735,0.012559856687080538,-2.3265504548862127e-05,64.04355826169676,3.6750480968261474,86.16843969807043,43.983392102319584,910.0,940.0,925.0,0,S11
2.5374975916666664,0.03601115864712303,-0.0007393469650670141,35,34.374583333333334,0.011539485353438997,-3.462045975415206e-05,64.1256627793816,2.241511343945048,72.75987905432498,42.16086981201355,920.0,950.0,935.0,0,S11
2.451510566666667,0.1737902819561906,-0.0025529022987707426,30,34.37183333333334,0.011545802508078507,2.993263421080151e-05,64.47082330746005,3.0503456730235317,77.03246069028303,41.83214638256352,930.0,960.0,945.0,0,S11
2.4326522583333334,0.16534919775480697,0.00019745301409819925,26,34.37266666666666,0.012092238098144673,-2.2223765539440903e-06,64.97694981677081,5.753635880222303,102.57192598367256,60.74552765773516,940.0,970.0,955.0,0,S11
2.4293901250000003,0.16240614281329604,0.0023999524376692822,23,34.374,0.013808210118138445,0.00010556288631152094,64.96669396885923,5.369234094038934,102.57192598367256,58.61489243304555,950.0,980.0,965.0,0,S11
2.5003459583333334,0.019773219061985432,0.00020256206333772774,19,34.38099999999999,0.015132745950421597,0.0002430724355858321,64.88686327195474,4.956810943202356,102.57192598367256,55.58359954302818,960.0,990.0,975.0,0,S11
2.5046847500000005,0.011851844348208695,0.0002151918049864683,25,34.390833333333326,0.016511780306461697,0.00029856240016662953,64.62972006229847,0.4464131146528322,67.38694235532579,20.361233006759573,970.0,1000.0,985.0,0,S11
2.508522533333333,0.006464100901560533,-0.0001625698104035001,22,34.39516666666666,0.011400536049773903,2.715466351826211e-05,64.6266957780948,0.2004814345088777,64.94613152451807,18.486046327605827,980.0,1010.0,995.0,0,S11
2.5021582416666672,0.006570683825391637,-0.00017562503993333035,19,34.40049999999998,0.012372684968643662,7.382457115078176e-05,64.65581292841279,0.16079355114560248,64.94613152451807,20.894554109065517,990.0,1020.0,1005.0,0,S11
2.492734441666666,0.010525617075969034,-0.000263062938398508,26,34.403833333333324,0.013855404080076449,0.0002355024654489562,64.47362824101857,1.2218543716821428,68.27151675479314,34.542612386631326,1000.0,1030.0,1015.0,0,S11
2.4799419,0.01642976704054769,-0.0004185132161955735,22,34.415166666666664,0.013539038206444988,0.00019827765817078657,64.41197168239651,1.2204796814441594,68.27151675479314,37.83297621527489,1010.0,1040.0,1025.0,0,S11
2.4628319166666666,0.018921505228876156,-0.00044017770678519947,23,34.419333333333334,0.01236482466066231,8.33391207723847e-05,64.28819790227442,1.2224062927955965,68.27151675479314,41.36297477809176,1020.0,1050.0,1035.0,0,S11
2.446958533333333,0.017093786291580364,-0.00036758640877838564,16,34.42133333333333,0.012310790208414246,-0.00012500868115832508,64.3366848668388,0.28748393301301534,65.06150935845248,35.530746755060214,1030.0,1060.0,1045.0,0,S11
2.4279296999999995,0.018395604720784078,-0.0004354152857837326,21,34.41599999999998,0.012806248474866257,-0.00014834363497485256,64.26348457996612,0.266863836296272,65.06150935845248,35.977159443237966,1040.0,1070.0,1055.0,0,S11
2.4128558999999994,0.01641508078688616,-0.00042693889853462097,11,34.41533333333333,0.012578641509409341,6.667129661825161e-06,64.24254120370567,0.1709766753426364,64.7533782902483,41.17363717765896,1050.0,1080.0,1065.0,0,S11
2.398773441666667,0.007223084737834004,-0.00019097796027501925,25,34.41583333333333,0.013758835545044429,0.00012882839086050064,64.24379573383182,0.18630542045337747,64.89221833163049,42.10875760027704,1060.0,1090.0,1075.0,0,S11
2.3981657999999997,0.01139140530590206,5.6827161608444187e-05,22,34.422333333333334,0.015744487571494336,0.00011459129106186125,64.17548975171731,0.9564771092719088,67.45368781616021,48.492332612070975,1070.0,1100.0,1085.0,0,S11
2.3892536166666662,0.017341056417830746,-0.00023168946454614218,20,34.427833333333325,0.018220104890539743,0.0001832766164317812,64.2583800512459,1.0176409925129948,67.45368781616021,43.5463389579295,1080.0,1110.0,1095.0,0,S11
2.378870375,0.021741626458655485,-0.0005075914612125736,13,34.43066666666667,0.015902480589170046,1.277866518510276e-05,64.35973632424106,1.0324761211916158,67.45368781616021,42.2615848663614,1090.0,1120.0,1105.0,0,S11
2.3602999000000002,0.011583439106039841,-0.00030276259462462193,20,34.42449999999999,0.017313289693181806,-0.00023730814639918478,64.49460840907733,0.39219828288881764,65.4217089351845,34.324828845976135,1100.0,1130.0,1115.0,0,S11
2.3555560499999997,0.013401391854237853,-1.8522251545239086e-05,16,34.42066666666666,0.014360439485692739,-5.000347246345347e-05,64.52057448901206,1.8851527633528546,81.02468759581859,79.70982060922955,1110.0,1140.0,1125.0,0,S11
2.3518995,0.016684708084051064,2.5493235641354717e-05,18,34.42133333333333,0.016069294390925932,0.00021834849642327495,64.29726302762433,2.238742315786253,81.02468759581859,90.34588499110731,1120.0,1150.0,1135.0,0,S11
2.3508974083333336,0.02005006257284326,-0.0001433093235641275,15,34.42733333333334,0.015260697523014023,5.667060212519889e-05,64.18124435033268,2.6459793982989503,81.02468759581859,96.9362393363115,1130.0,1160.0,1145.0,0,S11
2.3455458250000003,0.021025328561706438,-7.96526321272312e-05,19,34.42733333333333,0.014360439485693639,-5.778179040205009e-05,64.39828509839231,4.359190641948281,97.88769074812215,88.12755603917256,1140.0,1170.0,1155.0,0,S11
2.348712016666667,0.021526470339632002,0.00014365994166262212,16,34.4235,0.013943337716154174,-0.00010160427807484743,64.52071535682961,4.326540940478783,97.88769074812215,92.1541044527755,1150.0,1180.0,1165.0,0,S11
2.6007196083333333,0.3562941307717379,0.008421012782137654,8,34.21991666666667,0.28466206817128775,-0.006766476838669435,64.03687031085347,10.842243346786335,123.62847568420473,92.13484403850696,1160.0,1190.0,1175.0,0,S11
2.8473330500000005,0.34789158233585865,0.007928794159316625,18,34.007083333333334,0.29154586784167386,-0.007106292103618326,63.975893813857674,14.365526236492048,124.91997438360288,71.49824275691249,1170.0,1200.0,1185.0,1,S11
3.09701665,0.050701241572018406,-0.000155341898742968,17,33.78341666666667,0.03277437600050159,-0.0009118341551498491,64.37611613376666,16.18226410400555,124.91997438360288,61.13473602330257,1180.0,1210.0,1195.0,1,S11
3.085812558333333,0.042940306090702984,-0.0002750982533509293,17,33.740833333333335,0.042496731900491906,-0.0011608445030904155,65.7689095793853,13.876257879509208,124.91997438360288,49.05805822009661,1190.0,1220.0,1205.0,1,S11
3.1088817333333334,0.06274245255284142,0.0005453675533023162,17,33.706583333333334,0.03426601409884555,-0.000836898395721949,66.29382970917621,13.22730039819455,139.0,46.60596331658285,1200.0,1230.0,1215.0,1,S11
3.1243180249999996,0.07477189945967475,0.0008977630078477549,16,33.67716666666666,0.019965943225626503,-0.000411486908813227,65.46789051269164,15.102328026440821,139.0,35.74107420469558,1210.0,1240.0,1225.0,1,S11
3.1031250916666666,0.09953478540096722,-0.0018044252135564819,13,33.655499999999996,0.02863127660444052,-0.0007419265226751392,64.31341193038055,16.290131344053595,139.0,35.06197604084643,1220.0,1250.0,1235.0,1,S11
3.062786025,0.09772123964910448,-0.0015123177616501113,13,33.623416666666664,0.03498799397253465,-0.000920723661365264,65.27962611040071,17.173974929709424,130.0692123448128,34.1944921149591,1230.0,1260.0,1245.0,1,S11
3.0088762916666667,0.07470241426948616,0.0001183840509757667,15,33.5875,0.035361231124873126,-0.0009030488228349409,67.5392329417039,15.914155553455942,127.32242536175629,28.637532127024997,1240.0,1270.0,1255.0,1,S11
3.039450375,0.0794260375042994,0.0011556338947149149,16,33.55825000000001,0.02782871718207692,-0.0006288283908604835,68.24045040880983,15.613538825949526,127.32242536175629,27.376321857355126,1250.0,1280.0,1265.0,1,S11
3.0491087333333335,0.08361768372666288,0.0009480609903465426,18,33.529666666666664,0.026329113585955907,-0.0006349052017499886,66.64741797811533,12.975811221283607,123.9112585683803,26.65000334571065,1260.0,1290.0,1275.0,1,S11
3.0643424416666667,0.08517356120483201,-0.0004727637440099965,22,33.507333333333335,0.02644911256650238,-0.0006647683866935983,65.69390544507306,12.671587142388079,123.9112585683803,35.089519264621195,1270.0,1300.0,1285.0,1,S11
3.067604575,0.09631467127171077,0.0007421735155219025,21,33.48241666666667,0.018348289354112046,-0.00045402458504066465,66.82394339415892,13.981318103845327,114.30223094935637,36.65369087817836,1280.0,1310.0,1295.0,1,S11
3.0792884166666665,0.0932861034873883,0.0009136586082366802,24,33.46566666666667,0.018472201336663174,-0.00041600111118846625,68.70630933303477,16.412689943049315,133.91788528796295,45.59202519690868,1290.0,1320.0,1305.0,1,S11
3.0765486916666664,0.08526969476009591,-0.0006637293110632751,20,33.45033333333333,0.01712373271872165,-0.00029988193624556794,68.39366326421403,16.50979987667829,133.91788528796295,42.62310704952838,1300.0,1330.0,1315.0,1,S11
3.0713144,0.07668750174609071,6.73289742343112e-05,19,33.43366666666666,0.02128901646911558,-0.00044933675949717684,67.6415488031539,17.08788680646466,133.91788528796295,43.69576362633899,1310.0,1340.0,1325.0,1,S11
3.079544233333333,0.08134191001576137,0.001001292367525503,21,33.41383333333333,0.02439888430964824,-0.0005753871796651403,66.06569825768686,15.992920737759942,129.46428078817723,33.60699880605229,1320.0,1350.0,1335.0,1,S11
3.101366108333333,0.07157351898721527,-2.493873532883944e-05,20,33.39083333333333,0.021893048110200115,-0.0005251059101327017,66.47147847520768,16.98703081726383,129.46428078817723,30.822848404227667,1330.0,1360.0,1345.0,1,S11
3.0828169583333334,0.09190925560613177,-0.0010172802659906964,22,33.373916666666666,0.018361909547271536,-0.00038450586846306345,65.56153508906547,16.10078000487045,115.99137898999219,29.440877458994926,1340.0,1370.0,1355.0,1,S11
3.0486609583333335,0.08105803249847153,-0.0008575479859712593,15,33.35650000000001,0.01696319545368523,-0.0003887075491352689,65.34903809206389,13.573683623418122,115.99137898999219,26.463186153913263,1350.0,1380.0,1365.0,1,S11
3.041923591666667,0.09377148716120977,0.0007946750503507242,15,33.34433333333333,0.01696728879016474,-0.00034377387318562755,64.5505129672209,14.676441746394588,167.54999253954026,28.08941472186038,1360.0,1390.0,1375.0,1,S11
3.077540133333334,0.10520738908483988,0.0019038945343426488,12,33.32908333333333,0.014719365550940765,-0.0002444266962982952,64.90006042764445,15.345427869176476,167.54999253954026,28.410214805691908,1370.0,1400.0,1385.0,1,S11
3.1148943,0.12529232383906577,0.0008562131050767354,16,33.31616666666666,0.01988229251257285,-0.00040398638794355364,65.89127872002331,18.326375945801992,167.54999253954026,44.52295617587503,1380.0,1410.0,1395.0,1,S11
3.093701375,0.15299094932942178,-0.0015822563337731797,11,33.29666666666667,0.02180723631172734,-0.0005047572748107521,66.83937871913592,15.599597829428793,116.14645926587689,41.010440841242556,1390.0,1420.0,1405.0,1,S11
3.0513474583333333,0.16952903183697357,-0.0016096864469754774,17,33.27733333333334,0.02249938270758185,-0.0005286478227655268,67.46141241861757,14.551615070220166,124.21755109484327,41.53039317576145,1400.0,1430.0,1415.0,1,S11
3.0461878000000002,0.15271073719539174,0.0010654691159108299,22,33.25566666666667,0.02116338557246751,-0.00048211681366769105,67.20985644634041,13.457099605622576,124.21755109484327,26.724418816957773,1410.0,1440.0,1425.0,1,S11
3.029600158333333,0.15649954299965202,-0.0007339591534134411,23,33.23225,0.02659769726874849,-0.0006342454337106729,67.20964117398407,15.556535601828946,131.01526628603247,30.722287864657623,1420.0,1450.0,1435.0,1,S11
2.940574908333333,0.18540568435770768,-0.0043359915584415595,15,33.212666666666664,0.021974732965132082,-0.00040405583721099693,66.53872916636104,12.947233459661875,131.01526628603247,23.88150789488246,1430.0,1460.0,1445.0,1,S11
2.8052087666666665,0.150389029519484,-0.003165633675949715,8,33.191,0.023000000000000905,-0.00039891659142999436,65.7319790594904,9.998262961937362,131.01526628603247,19.70436230871366,1440.0,1470.0,1455.0,1,S11
2.7758713,0.14539646725921507,0.0018513178345718434,5,33.17258333333333,0.025835886970560523,-0.0005621570942426999,64.43015535784576,4.83874094131854,87.60136985230311,16.187704694329994,1450.0,1480.0,1465.0,1,S11
2.9081992333333337,0.22214024226108206,0.0053817324675324695,10,33.15433333333332,0.01686877457183931,-0.00028390860476433093,63.42177810590821,8.922988767874156,87.60136985230311,24.58196399448972,1460.0,1490.0,1475.0,1,S11
3.0252400833333337,0.18457869399651664,0.0023594451281338915,15,33.14183333333333,0.01125339454959429,-0.00019355510799348613,64.16029750969957,11.698556469361403,115.97413504743201,28.644478548690472,1470.0,1500.0,1485.0,1,S11
3.048682383333334,0.11439786897513894,-0.0025173768108896536,12,33.13216666666667,0.014093930923942453,-0.0002966178206819029,64.51847218840389,10.70631027980627,115.97413504743201,24.125364900953656,1480.0,1510.0,1495.0,1,S11
2.9590175166666666,0.10360490269166671,-0.002331841607056045,8,33.112500000000004,0.02244437568746342,-0.0005576081672336792,65.5348040738937,7.4803824543289466,115.97413504743201,15.339139544714437,1490.0,1520.0,1505.0,1,S11
2.9158641333333337,0.03721118161698472,-0.0002896062226543468,11,33.089333333333336,0.02632278269653411,-0.0006875477463712585,64.85189712725897,0.6440282049361895,67.512961718473,2.0096041881563536,1500.0,1530.0,1515.0,1,S11
2.951160758333333,0.10171132227330085,0.002165628623515527,7,33.06466666666667,0.018926759422106407,-0.00047808875616365176,64.9096588754399,1.4298664299018,77.4919350642375,6.87518784389844,1510.0,1540.0,1525.0,1,S11
3.021988625,0.09765412280237351,0.002023621595249664,15,33.04058333333333,0.023533516288240186,-0.0005922980762554984,64.84668517446926,1.4516962090152106,77.4919350642375,6.9238658738373084,1520.0,1550.0,1535.0,1,S11
3.085077016666667,0.085828873046602,0.001051475956663654,14,33.01941666666667,0.02222220486110327,-0.0005509757622057213,64.43495952854104,6.067206157308186,106.155546251715,36.271574360035096,1530.0,1560.0,1545.0,1,S11
3.0801518916666666,0.05697601738170133,-0.0006281479234669039,10,32.997666666666674,0.017259457954666484,-0.0003955830265991039,64.44195117183763,5.95972000179762,106.155546251715,35.86964156255801,1540.0,1570.0,1555.0,1,S11
3.063383066666667,0.06596348959901142,-0.0008570461976526177,10,32.98391666666667,0.01427677795894092,-0.00032602958538781903,64.22600395214548,6.560265467621028,106.155546251715,36.915128875420294,1550.0,1580.0,1565.0,1,S11
3.0712184999999996,0.06303694325472962,0.0011890777553996744,11,32.971250000000005,0.013878190323910041,-0.00025838599902766834,64.35887234760607,3.116175563819772,78.82892870006543,10.93879756461935,1560.0,1590.0,1575.0,1,S11
3.11089665,0.06711273016421078,0.0014481149732620353,19,32.9545,0.023588485891779316,-0.0005414959372179782,64.33016202978712,3.1326644497406866,78.82892870006543,10.35359446306236,1570.0,1600.0,1585.0,1,S11
3.1795497999999998,0.060546473088391645,0.0013379849989582728,12,32.928666666666665,0.032836294282733325,-0.000829224251684365,65.02142553606623,3.622506672337119,87.7040477971228,12.130543543457653,1580.0,1610.0,1595.0,1,S11
3.2558792166666666,0.102800900585321,0.0024475476560872397,9,32.90233333333333,0.027225396640311005,-0.0006154594069032144,65.42438822524925,3.399670378904729,87.7040477971228,11.199206458743205,1590.0,1620.0,1605.0,1,S11
3.3486283749999997,0.09614358821991739,0.0020920331585526737,6,32.879333333333335,0.020401524997465195,-0.0004085005903188821,65.84365135414961,5.094628840245157,94.28679653058533,14.458431421137018,1600.0,1630.0,1615.0,1,S11
3.4076905749999997,0.06059154894821863,0.000559757951941102,7,32.859666666666676,0.02228352655114328,-0.000560594485728064,65.56022358730044,4.0226960092921,94.28679653058533,10.038182603052318,1610.0,1640.0,1625.0,1,S11
3.4423289833333333,0.058182772342991615,0.00040481846656016484,12,32.84183333333333,0.01852850656570878,-0.00041426487950562037,65.7469644471745,4.105281068165458,94.28679653058533,10.457294056927708,1620.0,1650.0,1635.0,1,S11
3.466666733333333,0.06177411321388776,0.0008870715535801007,9,32.82783333333333,0.012595193086606032,-0.00022702965483706135,65.51994941515909,1.461584289390605,71.03520254071216,5.726860054456834,1630.0,1660.0,1645.0,1,S11
3.535499033333333,0.13273451994946736,0.001882535377456779,6,32.816833333333335,0.015164835054237229,-0.00032273074519066874,65.59977041627604,1.370567278613776,71.03520254071216,5.422952531575602,1640.0,1670.0,1655.0,1,S11
3.5877734166666664,0.129771624854112,0.001548717410931324,5,32.80216666666667,0.018220104890538286,-0.00042787693589829684,65.47769301665171,3.8563865492348652,88.6904729945669,7.114213116770774,1650.0,1680.0,1665.0,1,S11
3.617426383333333,0.11973597390350035,-0.00010175364261406198,7,32.787666666666674,0.016967288790165822,-0.0003221057017848759,65.50692713806095,5.30180757812292,89.7217922246318,11.977258972446723,1660.0,1690.0,1675.0,1,S11
3.6773144,0.11726434706070438,0.0018566602125147528,7,32.771,0.020305992547357602,-0.000400444475310881,65.61546206229521,6.088470389583148,89.7217922246318,12.372214483358354,1670.0,1700.0,1685.0,1,S11
3.725073075,0.11047486857072686,0.0020803479512466225,12,32.7575,0.0203408456068089,-0.00037217862351553426,65.32939014484953,5.269799170939773,89.7217922246318,11.49281771338324,1680.0,1710.0,1695.0,1,S11
3.818533041666667,0.08131683442287088,0.0008634788075560703,5,32.74566666666667,0.014418352502589637,-0.00015376067782488963,65.64487738531436,4.324358110407092,83.74962686484042,6.114337530550631,1690.0,1720.0,1705.0,1,S11
3.9861236666666664,0.26269295032995377,0.005986307590804905,4,32.73633333333334,0.013658534165699465,-0.00020709771511910548,65.3416033269404,3.783720567303853,83.21658488546619,5.646348141350596,1700.0,1730.0,1715.0,1,S11
4.08712825,0.2284602943666306,0.00238831936245572,6,32.72833333333333,0.013059692016105953,-0.00025154524619765215,65.82220157672647,3.4526964717624837,83.21658488546619,5.518084802618468,1710.0,1740.0,1725.0,1,S11
4.224890283333334,0.21068562288443662,-0.0005307882005694899,6,32.70991666666666,0.02314792407298938,-0.0004911799430517645,65.55219965862129,2.82856617085721,80.25584090893322,6.2309174011314115,1720.0,1750.0,1735.0,1,S11
4.238699475000001,0.22094237807329475,0.0033254739183276654,5,32.689833333333326,0.027748373325697122,-0.0006842836308076725,65.61960261104831,1.9303073593174969,80.25584090893322,6.589869092760662,1730.0,1760.0,1745.0,1,S11
4.377854975000001,0.2103470290476931,0.002259193134939934,4,32.66849999999999,0.019176808910766355,-0.0003809292311967058,65.52757955782162,2.1102094588038023,79.55501241279521,6.7473512498527075,1740.0,1770.0,1755.0,1,S11
4.4243604083333326,0.16177378872500206,0.0011910343322452867,8,32.65341666666666,0.013508999058239686,-0.00026803944718381507,65.3779184021057,2.1877199868679154,79.55501241279521,7.902753442454233,1750.0,1780.0,1765.0,1,S11
4.5285554,0.1490249143375809,0.0019135245919855344,6,32.63966666666666,0.016927951900791435,-0.0003709979859712626,65.48319243142149,2.049758275851788,79.55501241279521,7.3439460853254275,1760.0,1790.0,1775.0,1,S11
4.574341958333333,0.1276042872773348,0.002624654382248767,13,32.62166666666667,0.019930434571834795,-0.0004326689353426429,65.34733448424849,1.3388586446718136,71.7007670809734,6.867013032829888,1770.0,1800.0,1785.0,1,S11
4.686233775,0.09883845990861907,0.0014729552642544605,10,32.60783333333334,0.018036228972696577,-0.00033481491770276595,65.4541250785107,1.0078906389132083,71.7007670809734,4.324352501306474,1780.0,1810.0,1795.0,1,S11
4.723801125,0.08574320033114019,0.0018631813980137532,11,32.595000000000006,0.017559422921421024,-0.00029265921244520977,65.49044425266254,0.9924942933001272,71.7007670809734,4.299649585205236,1790.0,1820.0,1805.0,1,S11
4.799721858333333,0.07704660438984269,0.0014530240884783679,9,32.57933333333334,0.024349309823666735,-0.00060698659629141,65.44667118275238,0.6951482551871362,67.09694478886502,4.2152170070669746,1800.0,1830.0,1815.0,1,S11
4.855338333333333,0.07697238351819581,0.00199062518230431,6,32.55983333333334,0.024082612445958735,-0.0005826099034654113,65.41563917672134,0.7761987080215853,69.28924880528002,4.271328910271629,1810.0,1840.0,1825.0,1,S11
4.91655155,0.059919274831900564,0.0013362712132787046,12,32.544,0.01733974240485264,-0.0002501562608514787,65.42979049103295,0.8221007437473257,69.28924880528002,4.430678766660176,1820.0,1850.0,1835.0,1,S11
8.742278875,0.29798069942485544,-0.006106103802347392,17,34.78933333333334,0.009637888196533578,-8.667268560319439e-05,63.63863345124724,8.226441056604932,127.07084638106413,159.577729043369,0.0,30.0,15.0,0,S13
8.4568472,0.33961009034436834,-0.007840576463643329,11,34.789333333333346,0.010934146311237432,8.445030904927857e-05,63.68120871152449,7.571568994551761,127.07084638106413,141.7668010963192,10.0,40.0,25.0,0,S13
8.263110741666667,0.2960321123309231,-0.005554207733175904,6,34.79100000000001,0.011210114480533469,0.00010084033613438636,63.4512235146137,4.161398142275445,81.94510357550352,112.11864961020831,20.0,50.0,35.0,0,S13
8.135556724999999,0.0705337096335223,0.0005049738697131677,20,34.79133333333334,0.011469767022723532,-7.333842627967739e-05,63.295888472020394,4.763279948826168,90.22194854911969,68.56510078912028,30.0,60.0,45.0,0,S13
8.131185916666666,0.12481922822863896,-0.00023490902840476863,22,34.78366666666667,0.014828650946356202,-0.0002786304604487064,63.19508896205987,5.695530213305244,90.22194854911969,74.67742790830438,40.0,70.0,55.0,0,S13
8.141835741666664,0.1154480492273109,-0.000421742159177749,23,34.77633333333333,0.01652943502428943,-0.00021362594624627424,63.289938377281565,5.58349056295152,90.22194854911969,101.56617793254992,50.0,80.0,65.0,0,S13
8.093586675000001,0.1358869623811254,-0.001338352944648927,17,34.76233333333334,0.021005290338918285,-0.0003225223973887654,62.892504143897916,4.857083059112462,83.31266410336426,103.48228359962422,60.0,90.0,75.0,0,S13
8.049612425,0.10299151062131792,-0.0023618842940481954,16,34.751333333333335,0.02217105219775609,-0.00038391554969097343,62.93700570436468,4.332048741888788,86.3365507765975,101.7592807478826,70.0,100.0,85.0,0,S13
8.01998705,0.11373074712530841,0.0005530323494686788,12,34.73866666666667,0.01726911179598615,-0.00014612125842073236,62.81144163785769,3.361219923479693,86.3365507765975,72.25878104727134,80.0,110.0,95.0,0,S13
8.007141208333334,0.09843690742999604,0.00019110125355927346,8,34.724999999999994,0.021015867021530805,-0.0003864157233140992,62.73895264828872,2.539452814246394,86.3365507765975,45.21197440567844,90.0,120.0,105.0,0,S13
8.005115708333333,0.10528872605866506,-0.0007989117334537023,10,34.70883333333333,0.025172184825495356,-0.0005185082297381043,62.447027962401066,1.239098595659618,70.54785609782908,31.54579049561218,100.0,130.0,115.0,0,S13
7.952421275,0.053953559043088524,-0.0007624365476769469,16,34.69216666666667,0.01871645146804237,-0.0002868254739911979,62.495708342126974,1.6211432640168197,71.28113354878694,48.174349924691946,110.0,140.0,125.0,0,S13
7.957954025,0.06613883087824457,0.0004052937599833429,10,34.68516666666666,0.01901680543332465,-0.00010236822001529584,62.73914484579039,1.9060528199047597,71.28113354878694,62.361254292807665,120.0,150.0,135.0,0,S13
7.938370858333332,0.06071056451630356,-0.00017308832905060285,15,34.68066666666667,0.01691810338726744,-9.333981526496023e-05,63.013022806817325,1.9728887654536296,71.28113354878694,70.24781346493403,130.0,160.0,145.0,0,S13
7.8971256583333345,0.0981640479246769,-0.0025849942461281788,16,34.678,0.018601075237739784,-0.00010528508924242909,63.01013417400477,1.3126276600456677,68.97100840208152,61.72632157263941,140.0,170.0,155.0,0,S13
7.7909904416666675,0.099814779593822,-0.002795146117785967,16,34.672999999999995,0.015842979517756334,-0.00011639697201195246,63.027701571407036,2.139042143652636,76.19055059520177,82.04783124884466,150.0,180.0,165.0,0,S13
7.712828149999999,0.075092042787241,-0.0016351042919646932,19,34.67,0.014491376746190885,-7.694978817960456e-05,63.08981146683377,4.34749227479141,88.9719056781409,83.76204451496149,160.0,190.0,175.0,0,S13
7.643079891666667,0.07155764743358976,-0.001486256632405048,18,34.674,0.01529705854077991,0.0002452948121397192,63.31409238072329,5.487929725488895,90.29396436085858,80.9625127790205,170.0,200.0,185.0,0,S13
7.558574000000001,0.12304761605756528,-0.0032931432113341053,22,34.67766666666667,0.015531330342963768,0.00018417945690682574,63.31508283461174,5.184941559900841,90.29396436085858,78.11972788326618,180.0,210.0,195.0,0,S13
7.41272805,0.15132155207508993,-0.004224075887214399,21,34.68266666666667,0.015477582354993032,-2.000138898537194e-05,63.1639981936359,3.514398790835597,90.29396436085858,78.68823510286761,190.0,220.0,205.0,0,S13
7.223241358333334,0.18135409353006968,-0.005141136860198628,21,34.688833333333335,0.01789708231962959,0.00033127300506981857,62.90579429832729,0.9887923761845243,69.13031173081747,81.12320680024648,200.0,230.0,215.0,0,S13
7.045660999999999,0.1570961608344817,-0.004001337120633366,13,34.69566666666666,0.01706523431489458,0.00020445864296117543,62.83259355761863,1.3657184274594525,66.91786009728644,84.39914563795458,210.0,240.0,225.0,0,S13
6.988852575,0.10711482565068997,0.0006116390339606942,16,34.70883333333333,0.01664248245371485,0.00020209736787264957,62.63988095402693,2.4177084326557745,66.91786009728644,86.79161456167422,220.0,250.0,235.0,0,S13
6.841339508333333,0.24402071094953517,-0.004002421102159837,21,34.715,0.017368553960149635,0.0002975206611568512,62.67140029920427,2.445182584232051,66.91786009728644,107.39961941787396,230.0,260.0,245.0,0,S13
6.789837266666667,0.23856619902278464,-0.0041233800819501535,11,34.7305,0.01865699154026036,0.0003426626849086122,62.70806519415178,2.132735240485813,65.7419196555744,88.26132887624115,240.0,270.0,255.0,0,S13
6.665769516666666,0.12861156404104207,0.000841534252378609,27,34.739,0.018411952639523357,0.00027863046044862214,62.90029679130271,0.6603006128777663,64.87680633323437,79.1641726673384,250.0,280.0,265.0,0,S13
6.7210738166666655,0.03641804597768882,-0.00023431994582959762,24,34.74666666666667,0.015563490039906881,2.8890895201019527e-05,62.95625579557759,3.6425526125420014,91.07140056021979,67.50838487422425,260.0,290.0,275.0,0,S13
6.7015545833333325,0.04997208875755602,-0.0003022445239252714,26,34.75366666666666,0.017698085269945932,0.0002475171886937091,62.91734251878867,4.364593571009148,91.07140056021979,101.39735900567821,270.0,300.0,285.0,0,S13
6.665778174999999,0.08409235994405821,-0.001856375529550684,20,34.771333333333345,0.02629744389775501,0.000643378012361896,64.03098501049675,7.222623617417353,113.46805717910217,107.53077504444819,280.0,310.0,295.0,0,S13
6.547681975000001,0.1380844708782431,-0.0035738367351899236,18,34.79433333333334,0.02532236604707793,0.0005775401069517892,64.03627775768638,6.530451562266299,113.46805717910217,99.24346103616854,290.0,320.0,305.0,0,S13
6.413115391666666,0.14864155159360695,-0.003847850486144879,11,34.806000000000004,0.014966629547095826,-6.268469319441873e-17,63.97968865388989,6.673288026501411,113.46805717910217,114.12207917763499,300.0,330.0,315.0,0,S13
6.287226375,0.09325480832286549,-0.002158700878533257,15,34.811666666666675,0.013804186160565257,-9.72289742340657e-06,62.710746734481965,3.3683196607497186,76.12489737267302,107.6171973214938,310.0,340.0,325.0,0,S13
6.2154816833333335,0.07587252103528473,-0.0015469540731995243,15,34.809333333333335,0.014590712418825957,4.278074866301574e-05,62.38474240081584,2.7797929630069538,76.12489737267302,102.56882991963657,320.0,350.0,335.0,0,S13
6.1578529500000005,0.07239713609366165,-0.001445877060907036,24,34.812333333333335,0.013707256796634123,-9.917355371912587e-05,62.61240347669126,2.3777294923281773,75.47847375245475,96.72796724649437,330.0,360.0,345.0,0,S13
6.093867175,0.09944074647452647,-0.0019773100041669735,19,34.80800000000001,0.013999999999999686,-7.333842627974231e-05,62.863436401025204,5.145065323938333,84.76437931112338,134.70432304987983,340.0,370.0,355.0,0,S13
5.9881351333333335,0.15493539355313735,-0.0035397032849503506,13,34.81066666666667,0.012631530214330163,8.389471491076166e-05,63.04773950473642,5.713219466835872,84.76437931112338,154.3078545113271,350.0,380.0,365.0,0,S13
5.846049491666667,0.1728839320315799,-0.004403035769845147,15,34.81816666666667,0.015437148556502689,0.0003512743940551604,62.94603682551317,5.350680451538218,84.76437931112338,135.78922262275844,360.0,390.0,375.0,0,S13
5.741950416666667,0.11920159284901798,-0.001984002652962034,11,34.83416666666667,0.017728664799006283,0.00040683380790324804,62.89130964073323,3.5378672963733684,77.06490770772389,109.65968503156583,370.0,400.0,385.0,0,S13
5.686804058333334,0.07081996254520995,-0.00025210911521634193,21,34.845666666666666,0.01584999123729049,0.00024946176817830897,62.88593148634666,3.520362826165332,79.56758133813042,91.07529635321748,380.0,410.0,395.0,0,S13
5.656507133333334,0.08398652241470389,-0.001564303979443042,18,34.85566666666667,0.017829438827086486,0.00015889992360579872,62.978410573535875,3.3258785753257922,79.56758133813042,75.18845085498319,390.0,420.0,405.0,0,S13
5.5729181500000005,0.11166393974478739,-0.0029715939787485443,14,34.8645,0.019868316486304525,0.00032905062851584896,62.95992282776227,2.907997739949699,79.56758133813042,61.47718303650686,400.0,430.0,415.0,0,S13
5.4925800166666665,0.09145132596395963,-0.00172443355094101,15,34.87,0.017320508075687788,2.5557330370041636e-05,63.55894546715713,4.431190709385701,88.82004278314665,68.62784947008677,410.0,440.0,425.0,0,S13
5.451781399999999,0.06116792406010963,0.00012778067921384175,18,34.87383333333333,0.015393902111622386,-2.4307243558449287e-05,63.558982579842564,4.7842519528766045,88.82004278314665,85.1361347332987,420.0,450.0,435.0,0,S13
5.4371654,0.06008864035079069,-0.00020479614556567508,16,34.87166666666667,0.017336538165261033,4.0558372109164784e-05,63.51835717443667,4.576385239540975,88.82004278314665,83.0697247892128,430.0,460.0,445.0,0,S13
5.408137049999999,0.05357004894992632,-0.0013345997985971243,17,34.86333333333334,0.02195955878933369,-0.0003283561358428097,62.887477404966404,1.8969762711150875,72.3118247591637,64.1778202401019,440.0,470.0,455.0,0,S13
5.340880416666667,0.06476622701204995,-0.0018265292311966032,17,34.84733333333334,0.023935097428021294,-0.0004928120008334229,62.79374142100504,0.750136666630424,68.19090848492928,33.5040831325908,450.0,480.0,465.0,0,S13
5.259839816666667,0.07928830566272926,-0.0022736319536079096,16,34.83299999999999,0.012688577540449292,-0.00014334328772836388,62.85675508481425,0.7438684075008923,68.19090848492928,29.79210501822029,460.0,490.0,475.0,0,S13
5.1737142416666675,0.07331519488618936,-0.002095220824362808,17,34.82333333333333,0.01273664878302786,-0.0001755677477601811,62.82462468916187,0.7070120220240339,68.19090848492928,26.928765722297577,470.0,500.0,485.0,0,S13
5.095978399999999,0.05959042031224487,-0.0017082659976387254,20,34.81033333333333,0.022580719405919245,-0.000520591707757523,62.798313934554805,0.46198879182065083,65.5133574166368,25.432505217514237,480.0,510.0,495.0,0,S13
5.029024074999999,0.05459270193840972,-0.0015650444718383167,19,34.793000000000006,0.02245736701693457,-0.0005003125217028347,62.75356016960202,0.30114122955844846,63.56099432828282,23.495320448826728,490.0,520.0,505.0,0,S13
4.9671589166666665,0.052258258530683194,-0.0015002305924022251,21,34.77633333333333,0.01769808526994388,-0.0003291895270503189,62.87808561995005,0.34835150384604296,65.31462317123173,27.779073026690835,500.0,530.0,515.0,0,S13
4.902692658333333,0.05609627570503174,-0.0016069825717063525,22,34.766333333333336,0.014372040758207225,-0.00023196055281622975,62.96774699040805,0.3598688908832785,65.31462317123173,27.794848940745997,510.0,540.0,525.0,0,S13
4.821602983333334,0.08253176977604675,-0.0022140086464337867,19,34.75166666666667,0.01799691331559305,-0.00033196749774295413,63.29197347237436,2.475094740057693,79.6994353806851,45.01167520758426,520.0,550.0,535.0,0,S13
4.743963083333332,0.07399774785104192,-0.0018995813320369485,14,34.74566666666667,0.015531330342964209,-0.0001297312313355947,63.64574555316334,2.4669291940906732,79.6994353806851,42.11298005555677,530.0,560.0,545.0,0,S13
4.6534912083333335,0.08529670416843937,-0.0019624231370233987,17,34.742666666666665,0.014126413400279718,0.00020445864296128014,63.93820517061201,2.774452419377712,79.6994353806851,57.920153764986864,540.0,570.0,555.0,0,S13
4.469547283333333,0.2710857769986954,-0.006386625154524625,13,34.74533333333333,0.01521694961401905,-4.222515452459245e-05,63.92343887709356,1.4120772381433813,74.51845409024533,56.69597459935611,550.0,580.0,565.0,0,S13
4.4833642750000005,0.4299407386002937,0.0013707176088617224,10,34.746,0.017435595774164443,4.889228418636565e-05,63.787080170194784,1.5942825014648578,74.51845409024533,69.0193924783704,560.0,590.0,575.0,0,S13
4.536459658333333,0.4504118460814594,0.005652387002569603,12,34.74733333333333,0.016918103387267628,0.00016445586499071348,63.636667895484656,1.1580871411335767,69.2314957226839,67.52253157645272,570.0,600.0,585.0,0,S13
4.623637841666667,0.36175683683415016,-0.0031974491666087925,12,34.753,0.013576941236279658,0.00014084311410513613,63.553442081227146,1.1335782408398103,69.2314957226839,61.91794595218336,580.0,610.0,595.0,0,S13
4.460424608333333,0.2231450364031689,-0.006199912879366634,11,34.75733333333333,0.013148721948878814,6.8893673171764e-05,63.632479824372815,0.9124206271154734,66.9776081985614,47.52215869808935,590.0,620.0,605.0,0,S13
4.2971494916666675,0.11563808269885226,-0.002679586648378365,10,34.757333333333335,0.01412641340027972,-4.2225154524804014e-05,63.837977974050254,1.1493047976963926,69.72804313904126,53.82854378693726,600.0,630.0,615.0,0,S13
4.256437308333334,0.07029847149722813,0.0005960343183554248,14,34.754,0.016653327995731153,-0.00012667546357381993,63.945110823667555,1.1963005818805674,69.72804313904126,79.13244325373479,610.0,640.0,625.0,0,S13
4.263291975,0.073317693863585,8.23315681644585e-05,16,34.758666666666656,0.021406125810671455,0.00033057851239659915,63.897188844690376,1.3444668383074923,69.72804313904126,86.1693066294087,620.0,650.0,635.0,0,S13
4.244336108333333,0.11120506820080901,-0.001659888759636086,20,34.77200000000001,0.025219040425837967,0.0005661504271130131,63.90409981218686,1.2939708371491987,68.87670143089025,101.32739461733682,630.0,660.0,645.0,0,S13
4.1363227,0.17573974227298916,-0.003510426099034649,19,34.791666666666664,0.022595476440109334,0.00046475449684014975,63.849758281062215,2.2229936534459243,80.41765975207187,100.93740844505652,640.0,670.0,655.0,0,S13
4.0509094,0.18309459745768028,-0.00229957665810125,20,34.80616666666666,0.018082373246402342,0.00034988540870883764,63.49083384293519,3.107359746708427,80.41765975207187,97.7948728511481,650.0,680.0,665.0,0,S13
4.013501658333334,0.14200450008553106,0.0007468334155149803,21,34.820166666666665,0.017747456781810042,0.00036127508854768843,63.08710604793761,2.938318764691919,80.41765975207187,73.27890384157108,660.0,690.0,675.0,0,S13
4.037988708333334,0.10150214283004043,0.0011171977463712616,22,34.82966666666666,0.013287420951996231,0.00020334745468423082,62.87845249681538,2.311250369907648,77.12976079309465,55.6055782732647,670.0,700.0,685.0,0,S13
4.046037291666667,0.029981759554601372,-0.0006795180255573231,15,34.83583333333333,0.012012724734861662,4.847558858242171e-05,62.96267981271403,0.742260602250692,67.3349834781297,52.08627812575069,680.0,710.0,695.0,0,S13
4.018042983333333,0.03603778717933518,-0.0009643399541634963,17,34.837500000000006,0.01259960316835395,8.458920758385841e-05,62.95096584341096,0.6958683173129552,67.3349834781297,47.161998294810644,690.0,720.0,705.0,0,S13
3.9984278,0.02566747122286625,-0.0001527904785054595,20,34.836,0.01200000000000006,-5.111466074033785e-05,62.92678010838187,0.7038076380349171,67.72001181334805,43.192658508130755,700.0,730.0,715.0,0,S13
3.98428145,0.026359196050856695,-0.00011073765539273454,24,34.832333333333324,0.010857664983268388,-0.00017001180637554524,62.91492202333393,0.6982741566270873,67.72001181334805,45.99999864968295,710.0,740.0,725.0,0,S13
3.9544216000000003,0.06662432588944771,-0.0012851873324536572,22,34.824999999999996,0.011180339887497517,-0.00016501145912906485,62.98306516286427,5.100670154374468,88.95504482602435,96.46512685925532,720.0,750.0,735.0,0,S13
3.9063537250000007,0.06559785472558823,-0.0014542496180290413,17,34.818333333333335,0.012133516482133035,-0.0001927911660533189,62.96225020519669,5.104414667541192,88.95504482602435,93.55245894669056,730.0,760.0,745.0,0,S13
3.8532114666666666,0.05653334126703954,-0.0010644648239461008,16,34.809666666666665,0.01601735170231169,-0.00022168206125436007,62.90311791540664,5.310155978918923,88.95504482602435,101.90832568045191,740.0,770.0,755.0,0,S13
3.8084270083333327,0.04658483802206032,-0.001281699975692755,18,34.80100000000001,0.016802777548171947,-0.00024335023265519245,62.78045917355885,1.6423395782978258,72.37402849088892,58.62725983082301,750.0,780.0,765.0,0,S13
3.7643248083333334,0.04238057098429576,-0.0011414541322314078,13,34.79666666666667,0.015776212754932673,-1.3334259323726983e-05,62.81283474614944,1.5213342234987666,72.37402849088892,58.08174490409329,760.0,790.0,775.0,0,S13
3.72299435,0.02897263809115134,-0.0008293361413987129,19,34.79466666666667,0.013349989596334714,3.1113271754891416e-05,62.91451295416932,0.44428940229843056,64.07807737440318,40.46444696136213,770.0,800.0,785.0,0,S13
3.6947122583333334,0.023696621793515848,-0.000636329227724145,19,34.79466666666667,0.012840906856172833,-4.7225501771034264e-05,62.97953417308324,0.3915039481815885,64.01562309311689,37.64635413945228,780.0,810.0,795.0,0,S13
3.671771,0.01624311382812215,-0.0004206005555941508,20,34.790333333333336,0.012378296418417888,-9.639558302662516e-05,63.01492433061573,0.32038249033007077,64.01562309311689,35.797966729581475,790.0,820.0,805.0,0,S13
3.649671916666667,0.022396460805442497,-0.0005946051948051947,21,34.787000000000006,0.012556538801224147,-7.639419404133945e-05,63.06544683855944,0.2403089390107625,63.63961030678928,34.55711124597464,800.0,830.0,815.0,0,S13
3.6231487500000004,0.027668023376649673,-0.0007898103201611205,21,34.783,0.012013880860625407,-2.7501909854800364e-05,63.071006787461094,0.299615558181902,63.92182725798755,35.17364047597765,810.0,840.0,825.0,0,S13
3.5906451333333336,0.028422166919481847,-0.0008114287728314459,23,34.77633333333334,0.016121069719124612,-0.00018751302173758118,62.922653003263605,0.7514912047930438,65.68104749469211,32.36688836347006,820.0,850.0,835.0,0,S13
3.5587145583333335,0.03221813220734455,-0.000702034478088757,18,34.77033333333333,0.015271614918607023,-0.00014306549065918854,62.881889080130186,1.9217246717998457,74.42445834535849,56.67128776200666,830.0,860.0,845.0,0,S13
3.5485702083333335,0.023936245498509815,6.247398777691907e-05,25,34.76933333333333,0.015040685563571375,0.00015112160566702155,62.793510980068866,2.2060474751548758,74.42445834535849,90.75143608869075,840.0,870.0,855.0,0,S13
3.539545166666667,0.023744954928480215,9.1222543232173e-05,19,34.781,0.020469489490457876,0.0004247517188693456,62.80852474833416,2.1712252158388514,74.42445834535849,93.48697417729589,850.0,880.0,865.0,0,S13
3.5358209583333333,0.02284184712882472,-0.0005555147753316261,19,34.79866666666667,0.022910453703251604,0.0005255920550038036,62.63600735218277,1.3683017371811392,70.178344238091,81.70709160963666,860.0,890.0,875.0,0,S13
3.5518542333333327,0.04349395224563476,0.0008488196749774215,12,34.81199999999999,0.01700980109622979,0.00021057017848464204,62.431171473004866,1.1577975535170242,67.82329983125268,113.26153738113173,870.0,900.0,885.0,0,S13
3.5792622083333336,0.04932412750958296,0.0009972290749357669,20,34.82516666666667,0.017463453902999592,0.00026349052017506964,62.61512346617268,2.3936680323897024,75.45859791965393,164.33976038141904,880.0,910.0,895.0,0,S13
3.588131716666667,0.03830083117313585,-0.0008351247447739464,19,34.83883333333333,0.023028364152832936,0.0005237863740537034,62.7328202391608,2.963938512824286,76.43951857514541,168.99196909419493,890.0,920.0,905.0,0,S13
3.5986855416666668,0.055907975448185654,0.0002452684387804829,15,34.859,0.025344295873692243,0.0005489270088200738,62.970024550190466,3.06474710458736,76.43951857514541,137.67793038424455,900.0,930.0,915.0,0,S13
3.5974489083333334,0.053870803317906786,0.00071086020209736,19,34.87716666666666,0.022441900295849346,0.0004576706715744283,62.81793005311686,2.2021195490668277,76.43951857514541,69.47468588505016,910.0,940.0,925.0,0,S13
3.6047299833333333,0.04617114854411848,-0.000892912868949248,17,34.884833333333326,0.017558631938608557,0.00010459059656919382,62.759861345184135,1.2178412320965144,68.27151675479314,54.48006656235736,920.0,950.0,935.0,0,S13
3.5648173333333335,0.03751403693471137,-0.0010719052364747612,19,34.88633333333333,0.011827463332807209,-0.00015195499687475512,62.77802664533541,0.2633828345899327,63.76519426771944,38.1790831345261,930.0,960.0,945.0,0,S13
3.532665483333333,0.02469375703222151,-0.0006550361275088611,13,34.88333333333333,0.011925695879999684,2.0001388985161566e-05,62.774032892866806,0.2660721054062225,63.53739056650029,31.69367474355096,940.0,970.0,955.0,0,S13
3.5058224750000004,0.01858665889913268,-0.00048777214042641185,23,34.878833333333326,0.016642482453714958,-0.00015237169247866368,62.82714362431252,0.30280468403529603,63.953107821277925,32.704504237757526,950.0,980.0,965.0,0,S13
3.4876891083333335,0.021145072695073194,-0.0005784034481561178,20,34.87250000000001,0.018585388526114542,-0.0002501562608515113,62.881165179560774,0.8712437436188972,71.31619731870173,35.47157284351873,960.0,990.0,975.0,0,S13
3.4734574,0.019977958284652934,-0.00017400368081117525,15,34.86066666666667,0.018873850222521037,-0.0002197374817695217,63.27423680056316,4.636373292376158,100.13490899781155,83.76265930376665,970.0,1000.0,985.0,0,S13
3.4584475416666662,0.02315875374737588,-0.00033393143621085534,15,34.86483333333334,0.020370866997311464,0.0002740468088061585,63.38655200037566,4.641661933367462,100.13490899781155,87.36180261736565,980.0,1010.0,995.0,0,S13
3.4286089916666667,0.04429972751411605,-0.0010710196992846732,21,34.86716666666667,0.0210627369752562,0.00024126675463571036,63.48516624890367,5.121067566018732,100.13490899781155,90.55623831504283,990.0,1020.0,1005.0,0,S13
3.390188833333333,0.04391900132655823,-0.0009529040072227272,19,34.875666666666675,0.01531520667687987,-6.806028196400201e-05,63.21944241041971,4.173579756311298,77.63375554486592,63.22587710602668,1000.0,1030.0,1015.0,0,S13
3.3818843666666663,0.04045020269601733,0.00033227700534760367,17,34.87866666666666,0.017074997966487135,0.00021390374331546873,63.078843969161866,4.984252887591609,77.63375554486592,74.3985170849359,1010.0,1040.0,1025.0,0,S13
3.377215108333333,0.039731124926979645,4.4569181887635426e-05,13,34.892333333333326,0.019694894995629965,0.00044919786096246525,62.9871100172332,4.428954542962616,77.63375554486592,68.74217731252529,1020.0,1050.0,1035.0,0,S13
3.3749017833333332,0.03497556252566052,-0.0008341301757066491,11,34.903666666666666,0.017317300277147122,0.00023418292936992665,62.897580846012744,2.8111664932238343,73.45747068882783,57.31092304500804,1030.0,1060.0,1045.0,0,S13
3.3447967166666666,0.01881356671136697,-0.0005100579554135618,21,34.911666666666655,0.01331248369847741,7.583859990266193e-05,63.00100147659634,1.463037802851328,67.48333127521195,53.40660671358668,1040.0,1070.0,1055.0,0,S13
3.3172394833333336,0.0287443350755076,-0.0007948120147232532,18,34.917,0.01405939780597626,0.00020807000486144472,62.89876082861715,1.924634915444588,73.10266752998827,61.838389704310885,1050.0,1080.0,1065.0,0,S13
3.288893433333333,0.028020906231102195,-0.0007055110215987123,10,34.929,0.017291616465792442,0.0003603027988057053,62.93101694465396,3.247374269314781,84.49260322655469,64.4456766802152,1060.0,1090.0,1075.0,0,S13
3.2731906583333332,0.022173130438850164,-0.00011110264948954504,19,34.94033333333333,0.016121069719126208,0.0002475171886936988,62.95219223949855,4.039986663495192,89.56003573022959,83.37460870968484,1070.0,1100.0,1085.0,0,S13
3.260323516666667,0.025538376105051292,-0.0003064736717827787,16,34.95366666666667,0.016121069719124706,0.0002514063476630673,63.02559352564856,3.8318264669814543,89.56003573022959,76.88810742006132,1080.0,1110.0,1095.0,0,S13
3.246283708333334,0.029988971502425084,-0.0007031089277033264,17,34.96033333333333,0.01516208722072456,0.00014889922911309194,62.93558564132004,2.9811172375588937,89.56003573022959,82.38360621439735,1090.0,1120.0,1105.0,0,S13
3.2411240666666665,0.0267787294115228,0.00027285193416207783,17,34.961999999999996,0.014583095236150522,-0.0001697340093062957,62.74450392873312,1.31106575115866,67.47592163134935,56.645385589685645,1100.0,1130.0,1115.0,0,S13
3.231774891666667,0.03500018602326657,-7.953993680117542e-05,13,34.957,0.01530795000427246,-0.0002061254253769533,62.70022715988078,1.4769949557627369,70.44146506142529,58.19077394172981,1110.0,1140.0,1125.0,0,S13
3.194634,0.06977526018200624,-0.00173674819084658,18,34.956999999999994,0.01541644143979559,9.195082991868479e-05,62.71443592930424,1.08759339944993,70.44146506142529,46.04367729840572,1120.0,1150.0,1135.0,0,S13
3.1502972416666664,0.051031191326317886,-0.0010799728765886532,7,34.963,0.0166633329999329,0.00019806931036889944,62.671591847520936,1.6572794869143366,70.44146506142529,57.02500148759071,1130.0,1160.0,1145.0,0,S13
3.1128151583333334,0.0166433235477953,-0.00011653220709771075,23,34.972333333333346,0.01464771502848003,0.00017140079172150213,62.67358430107694,1.824873746080717,68.64400920692205,86.36536083274841,1140.0,1170.0,1155.0,0,S13
3.103028866666667,0.02199297574754774,-0.0005073689492325937,22,34.98083333333334,0.0133281239823504,0.00021265365650393776,62.885315615278536,1.9588465909318347,68.64400920692205,97.3625789453468,1150.0,1180.0,1165.0,0,S13
5.500100183333333,3.40833867522961,0.0803806426835197,9,34.834500000000006,0.21352146652425108,-0.004973262032085574,64.3788767435087,8.858718638199434,143.8401890988746,145.46574290015178,1160.0,1190.0,1175.0,0,S13
7.975773566666667,3.466146139365365,0.0832328261545941,15,34.67616666666666,0.22304029282222157,-0.005440238905479504,65.66425748086868,12.456134612558632,143.8401890988746,155.48456179705502,1170.0,1200.0,1185.0,1,S13
10.581052225,0.33709865993149213,0.0073912733835682955,9,34.50366666666667,0.02909562777386919,-0.0007447739426349823,64.79261131761419,13.002276158859281,143.8401890988746,183.4066918367295,1180.0,1210.0,1195.0,1,S13
10.796796225,0.30388861489640856,0.005847955611500758,12,34.482333333333344,0.021707653540220317,-0.00047669977081753374,63.93738447884428,10.836783009936234,136.36348484840067,166.73331765608268,1190.0,1220.0,1205.0,1,S13
10.958087433333333,0.20871647185459255,0.0020927341551496615,13,34.46,0.021679483388679185,-0.00044641989027023723,63.00847032789927,6.245611814565298,85.84287972802403,153.7397814327608,1200.0,1230.0,1215.0,1,S13
11.18973955,0.3600427975968007,0.008051648586707406,5,34.446666666666665,0.02371122565837266,-0.00044780887561628863,62.66150561795689,8.249386665529958,85.84287972802403,130.50992218984732,1210.0,1240.0,1225.0,1,S13
11.450795308333333,0.40615659215526695,0.008697943284255823,6,34.43,0.02033060090930432,-0.00024168345023963393,62.098413191069,7.931188171890386,91.72785836374901,152.0794120438535,1220.0,1250.0,1235.0,1,S13
11.7158143,0.29943298031250104,0.003061993610667483,10,34.4115,0.03021175268004164,-0.0006557399819432642,61.59040858205226,8.276768936559545,91.72785836374901,185.7828053612306,1230.0,1260.0,1245.0,1,S13
11.93873595,0.33016536341876856,0.005540096972011936,15,34.37966666666667,0.03859907886062569,-0.0009945135078824549,62.3633448017814,8.142269859655755,91.72785836374901,222.72486112464645,1240.0,1270.0,1255.0,1,S13
12.12847200833333,0.328213417169492,0.006470852882144535,12,34.34066666666667,0.038938698260498346,-0.000994791304951596,63.24116186650052,9.741087162550931,131.829435256319,234.4152452273529,1250.0,1280.0,1265.0,1,S13
12.279474058333331,0.22825396932511738,0.0009018933849572797,16,34.3055,0.029463253950188357,-0.0006893534273213722,63.565077938894305,12.345614604207674,135.94851966829208,216.8347831754629,1260.0,1290.0,1275.0,1,S13
12.401939716666668,0.2707698750452489,0.004825536578929051,14,34.27366666666667,0.03043937508483998,-0.0007375512188346215,64.10481061880184,13.086185675266528,135.94851966829208,193.56393560869336,1270.0,1300.0,1285.0,1,S13
12.544969408333333,0.32778169157978954,0.006983545923328095,10,34.24183333333334,0.034471808127158554,-0.0008726994930203134,63.3987278143095,12.147070079945156,135.94851966829208,159.51021538584135,1280.0,1310.0,1295.0,1,S13
12.778105416666667,0.2964277395159902,0.005386892492534246,10,34.20916666666667,0.032572568554264734,-0.0008271407736649259,63.67073283501871,10.752338362034111,104.52272480183436,166.24600130729962,1290.0,1320.0,1305.0,1,S13
12.88619445,0.2599287227838576,0.003382777790124305,16,34.17966666666666,0.028399921752631035,-0.0006847697756789306,63.20216107647346,7.990317177486487,90.80748867797193,169.099904694742,1300.0,1330.0,1315.0,1,S13
13.00485245,0.20891759142274455,0.0024438926105979724,13,34.15116666666666,0.028699109548709523,-0.0007226890756301871,63.18049880415803,7.112751754732646,90.80748867797193,167.78270748449134,1310.0,1340.0,1325.0,1,S13
13.062963791666668,0.1970799903512486,0.0022663632161955155,15,34.119166666666665,0.032264101137675326,-0.0008349190916034597,63.513322853881064,5.422129353430755,90.52071586106685,162.1550093672375,1320.0,1350.0,1335.0,1,S13
13.163750174999999,0.1962878848602082,0.0018818670497951643,14,34.090333333333334,0.027926490808709483,-0.0006686575456630059,64.27898952395059,7.202650376529311,101.3015300970326,135.18342914965473,1330.0,1360.0,1345.0,1,S13
13.348397316666667,0.2788743618208143,0.005599405910132632,8,34.06233333333333,0.026100234141138653,-0.0005980970900757878,64.15327141177542,6.932971981799157,101.3015300970326,116.27353507414699,1340.0,1370.0,1355.0,1,S13
13.513019616666668,0.24262094295828981,0.003803764080839003,10,34.032333333333334,0.03551369063082918,-0.0009386762969652256,62.90999596791133,6.523603859629976,101.3015300970326,115.03426866035278,1350.0,1380.0,1365.0,1,S13
13.647439574999998,0.16090777336597004,-6.153110285441344e-05,12,34.001000000000005,0.031395328739585504,-0.0008008889506216333,62.235071464504635,4.6543040805976,78.7210264160726,118.0873254713317,1360.0,1390.0,1375.0,1,S13
13.700442991666668,0.16915523786320735,0.002121137144940565,14,33.971,0.02307234997422925,-0.0005897631779985308,62.373493086651926,5.52847418697513,90.27735042633894,122.41154069322423,1370.0,1400.0,1385.0,1,S13
13.773599433333334,0.1600270431673312,0.002735022300159693,15,33.94133333333333,0.034470599388787326,-0.0008842280713939253,62.858328331766,6.770442575580725,97.98469268207153,160.13710558837457,1380.0,1410.0,1395.0,1,S13
13.908572458333333,0.1943861880362944,0.0026642611327175407,10,33.897000000000006,0.048211340298039106,-0.0013192582818251236,63.51901205024974,8.1762934650669,110.65712810298305,171.29331474839597,1390.0,1420.0,1405.0,1,S13
13.963897666666668,0.18799137231680493,0.00143084321827907,14,33.849666666666664,0.04589722819033274,-0.001239252725883794,64.46333694244832,10.638132209699384,142.46754016266303,179.52279013816897,1400.0,1430.0,1415.0,1,S13
14.101176141666667,0.20971284488649772,0.0021890974685742316,14,33.80200000000001,0.03758545818088062,-0.0010081255642754039,64.50267599112318,9.485767759342423,142.46754016266303,133.39653012288733,1410.0,1440.0,1425.0,1,S13
14.168482675,0.2873039303428271,0.003249155632335547,10,33.757,0.04506661735697508,-0.001236474755191454,64.01523543106909,8.99025209350654,142.46754016266303,115.19146587430352,1420.0,1450.0,1435.0,1,S13
14.274172049999999,0.26699963150148887,0.0008926005972636803,12,33.7225,0.033397854222489504,-0.0007935273282867583,62.9250386744582,4.399565260864612,88.6904729945669,89.68138832741904,1430.0,1460.0,1445.0,1,S13
14.340302916666667,0.3289669093746761,0.003017128078338757,13,33.68933333333333,0.023795424396767507,-0.0005678172095284718,63.004970238559494,5.38349872959649,93.83496150156401,95.60607853725011,1440.0,1470.0,1455.0,1,S13
14.551031808333333,0.35030047587835916,0.008036794579484662,11,33.66333333333333,0.033796778281697304,-0.0009350649350648845,63.17007021714288,3.9979864216759635,93.83496150156401,162.60074663315578,1450.0,1480.0,1465.0,1,S13
14.809743458333333,0.33776923412819626,0.008110375050350697,19,33.61416666666667,0.048452439452403476,-0.001336342801583599,63.437355380037616,5.060659613147945,93.83496150156401,162.45680011202637,1460.0,1490.0,1475.0,1,S13
14.980747983333334,0.16067490732677087,0.0009648444266963648,19,33.56633333333333,0.04983193977984644,-0.0013645392041112783,63.30424894752833,3.9902462567312598,92.9623579735368,162.51061333030853,1470.0,1500.0,1485.0,1,S13
15.158041333333333,0.24668649161987408,0.0037433199944440967,13,33.522666666666666,0.031137687061751212,-0.000757552607819999,63.075242485233616,3.3511866697704167,92.9623579735368,83.54107478942453,1480.0,1510.0,1495.0,1,S13
15.277511358333333,0.27970657972018326,0.00507786052156394,17,33.50000000000001,0.019493588689617758,-0.00039947218556834823,62.85691160619597,1.0686424398269205,69.28924880528002,79.10005496047395,1490.0,1520.0,1505.0,1,S13
15.403857425,0.15704195787223352,-0.000762969105493431,14,33.48500000000001,0.013964240043769852,-0.0002764080838946677,62.75917697180553,1.069597660303592,65.36818798161687,46.10195483804227,1500.0,1530.0,1515.0,1,S13
15.408142533333335,0.13867116275521102,4.051603583576566e-05,19,33.466666666666676,0.023142073276947315,-0.0005633724564207399,62.79183239734418,1.282231460061157,67.54257916307313,51.51621573592144,1510.0,1540.0,1525.0,1,S13
15.377141191666668,0.22195875712656982,-0.0005943137405375881,26,33.43966666666666,0.03255593477215676,-0.0008575595527468344,62.747887745764146,2.732992885400153,70.37044834303673,90.85151675475147,1520.0,1550.0,1535.0,1,S13
15.287739666666665,0.4111853063372672,-0.004783120654212093,26,33.400999999999996,0.03990405159045048,-0.001066462948815903,63.01897897959342,2.8225204521661573,70.37044834303673,118.02317014738628,1530.0,1560.0,1545.0,1,S13
15.305372208333331,0.42810609444308895,0.001039037061601466,26,33.36866666666667,0.03222145592958464,-0.0007944996180289123,62.79842226913574,3.5461002769215244,71.19691004531025,120.78772343313587,1540.0,1570.0,1555.0,1,S13
15.429257875,0.4281749350791404,0.006551143110632666,25,33.344,0.01907878402833817,-0.00038113757899852304,62.8430845674499,2.566785677653273,71.19691004531025,102.29333500930737,1550.0,1580.0,1565.0,1,S13
15.587280974999999,0.21796943621726958,0.001128584759358295,26,33.326,0.02274496281230899,-0.0005478158205431428,62.72383948615948,2.576165130803473,71.19691004531025,83.07920736913258,1560.0,1590.0,1575.0,1,S13
15.623227875000001,0.23785301115578925,-0.0010570571532744892,27,33.306000000000004,0.02497999199359348,-0.0006172650878534103,63.61775854735738,6.063343198555601,120.38687636117153,71.30249005995513,1570.0,1600.0,1585.0,1,S13
15.574069925,0.30732800050307707,0.0004739121640391108,24,33.284666666666666,0.02217105219775405,-0.000499479130495028,64.8941819963036,10.954990173308753,134.61797799699713,100.69194862494662,1580.0,1610.0,1595.0,1,S13
15.595763433333333,0.26387851513470273,0.00021252604347520802,23,33.272999999999996,0.01705872210923185,-0.00023418292937016496,64.83131840202009,11.063836928896999,134.61797799699713,92.96656666721049,1590.0,1620.0,1605.0,1,S13
15.617862408333334,0.26475184872352625,0.0008504665219807348,21,33.27,0.01414213562373065,6.50045142024202e-05,64.14414848679161,9.463256041364927,134.61797799699713,94.07538291695774,1600.0,1630.0,1615.0,1,S13
15.648379125,0.2107709624506564,2.541485867074226e-05,17,33.269999999999996,0.013662601021279173,-8.889506215702585e-06,62.8303313144582,2.488198863049503,72.04165461731151,79.68410390998633,1610.0,1640.0,1625.0,1,S13
15.529041008333333,0.3593365130195162,-0.0040346081776512525,22,33.269,0.013379088160259513,-0.00013639836099721577,63.00241669982482,2.191762604610454,76.2954782408499,96.09089753367063,1620.0,1650.0,1635.0,1,S13
15.416298124999999,0.3700273115014071,-0.003147585974720498,18,33.26133333333333,0.014313940369057214,-0.00018667963052996318,62.96219667109259,2.09645502789598,76.2954782408499,114.57756583833286,1630.0,1660.0,1645.0,1,S13
15.362576350000003,0.3260131398172383,0.002566171782762635,15,33.24766666666667,0.021630739443877892,-0.0004803111327176404,62.90122482668614,1.6889588418162798,76.2954782408499,100.92492233008323,1640.0,1670.0,1655.0,1,S13
15.424391049999999,0.25278695563197245,0.0008013685255921063,15,33.2215,0.03171881670764796,-0.0007926939370789583,62.8285596016777,1.174917746808554,66.55073252789934,92.63049796488316,1650.0,1680.0,1665.0,1,S13
15.471508633333334,0.1944118805949084,-0.0005585944093340866,19,33.1985,0.025937424698686116,-0.0005296201125078832,62.69617606446968,1.8747018144280523,68.7386354243376,99.45528296673362,1660.0,1690.0,1675.0,1,S13
15.047565666666666,0.6559654194697098,-0.013990242475171895,19,33.17666666666666,0.020138409955991806,-0.0003480797277587952,62.855688628907004,1.7946421145241782,68.7386354243376,114.29495818555992,1670.0,1700.0,1685.0,1,S13
14.762920458333332,0.6941897929244434,-0.008666110212514802,16,33.16799999999999,0.016911534525288516,-0.0002469615945552143,62.743108100351066,1.7230938959694564,68.7386354243376,115.42669861383409,1680.0,1710.0,1695.0,1,S13
